0.0 1883.01102
0.0 1887.64923
-0.0 1892.28699
-0.0 1896.92459
-0.0 1901.56158
-0.0 1906.19812
0.0 1910.83435
-0.0 1915.47043
-0.0 1920.1059
-0.0 1924.74091
0.0 1929.37561
0.0 1934.01001
0.0 1938.6441
0.0 1943.27759
0.0 1947.91077
0.0 1952.54349
0.0 1957.17575
0.0 1961.80786
0.0 1966.43951
-0.0 1971.07071
0.0 1975.70145
-0.0 1980.33203
0.0 1984.96216
0.0 1989.59167
-0.0 1994.22089
0.0 1998.84979
-0.0 2003.47855
-0.0 2008.10654
-0.0 2012.73422
-0.0 2017.3616
-0.0 2021.98853
-0.0 2026.61514
0.0 2031.2413
-0.0 2035.867
-0.0 2040.4924
-0.0 2045.11734
-0.0 2049.74197
-0.0 2054.36615
-0.0 2058.99002
-0.0 2063.61343
-0.0 2068.23654
-0.0 2072.85919
-0.0 2077.48123
-0.0 2082.10327
-0.0 2086.72485
-0.0 2091.34583
-0.0 2095.96649
-0.0 2100.5867
-0.0 2105.20676
-0.0 2109.82635
0.0 2114.44534
-0.0 2119.06403
-0.0 2123.6824
-0.0 2128.30048
-0.0 2132.91779
-0.0 2137.53494
-0.0 2142.15179
-0.0 2146.76819
-0.0 2151.38412
-0.0 2155.9996
-0.0 2160.61493
-0.0 2165.22949
-0.0 2169.84406
-0.0 2174.45801
-0.0 2179.07166
-0.0 2183.68484
-0.0 2188.29773
-0.0 2192.91031
-0.0 2197.52228
-0.0 2202.13379
-0.0 2206.745
-0.0 2211.35574
-0.0 2215.96634
-0.0 2220.57648
-0.0 2225.186
-0.0 2229.79553
-0.0 2234.4043
0.0 2239.01276
-0.0 2243.62076
-0.0 2248.22845
-0.0 2252.83569
-0.0 2257.44278
0.0 2262.0491
-0.0 2266.65512
-0.0 2271.26114
-0.0 2275.86639
-0.0 2280.47119
-0.0 2285.07568
-0.0 2289.67972
-0.0 2294.28345
-0.0 2298.88687
-0.0 2303.48984
-0.0 2308.09219
-0.0 2312.6944
-0.0 2317.29614
-0.0 2321.89758
-0.0 2326.49841
-0.0 2331.09894
-0.0 2335.69901
-0.0 2340.29892
-0.0 2344.89822
-0.0 2349.49707
-0.0 2354.09561
0.0 2358.69385
-0.0 2363.29163
-0.0 2367.88895
-0.0 2372.48581
-0.0 2377.08237
-0.0 2381.67847
-0.0 2386.27441
-0.0 2390.8696
-0.0 2395.46463
-0.0 2400.0592
-0.0 2404.65332
-0.0 2409.24698
-0.0 2413.84033
-0.0 2418.43338
-0.0 2423.02597
-0.0 2427.6181
-0.0 2432.20993
-0.0 2436.80115
-0.0 2441.39221
-0.0 2445.98282
-0.0 2450.57297
-0.0 2455.16266
-0.0 2459.75189
-0.0 2464.34082
-0.0 2468.92944
-0.0 2473.51761
0.0 2478.10516
-0.0 2482.69272
-0.0 2487.27951
-0.0 2491.866
-0.0 2496.45218
-0.0 2501.0379
-0.0 2505.62317
-0.0 2510.20813
-0.0 2514.79279
-0.0 2519.37668
-0.0 2523.96057
-0.0 2528.54385
-0.0 2533.12683
-0.0 2537.7092
-0.0 2542.29126
-0.0 2546.87302
-0.0 2551.45432
-0.0 2556.035
-0.0 2560.61584
-0.0 2565.19592
-0.0 2569.7757
-0.0 2574.35455
-0.0 2578.93372
-0.0 2583.51196
-0.0 2588.0899
-0.0 2592.66754
-0.0 2597.24487
-0.0 2601.8219
-0.0 2606.39832
-0.0 2610.97443
-0.0 2615.54993
-0.0 2620.12512
-0.0 2624.69971
-0.0 2629.27429
-0.0 2633.84827
-0.0 2638.42194
-0.0 2642.9953
-0.0 2647.56805
-0.0 2652.1405
-0.0 2656.71234
-0.0 2661.28387
-0.0 2665.8551
-0.0 2670.42572
-0.0 2674.99573
-0.0 2679.56604
-0.0 2684.13574
-0.0 2688.70483
-0.0 2693.27362
0.0 2697.8418
-0.0 2702.40936
-0.0 2706.97693
-0.0 2711.54419
-0.0 2716.11053
-0.0 2720.67688
-0.0 2725.24292
-0.0 2729.80835
-0.0 2734.37347
-0.0 2738.93799
-0.0 2743.5025
-0.0 2748.0661
-0.0 2752.62939
-0.0 2757.19238
0.0 2761.75507
-0.0 2766.31714
-0.0 2770.87891
-0.0 2775.44067
-0.0 2780.00122
-0.0 2784.56177
-0.0 2789.12201
-0.0 2793.68164
-0.0 2798.24097
-0.0 2802.79968
-0.0 2807.3584
-0.0 2811.9162
-0.0 2816.474
-0.0 2821.03149
-0.0 2825.58838
-0.0 2830.14465
-0.0 2834.70062
-0.0 2839.25629
-0.0 2843.81134
-0.0 2848.36639
-0.0 2852.92053
-0.0 2857.47467
-0.0 2862.0282
-0.0 2866.58142
-0.0 2871.13434
-0.0 2875.68634
0.0 2880.23804
-0.0 2884.78973
-0.0 2889.34113
-0.0 2893.8913
-0.0 2898.44208
-0.0 2902.99164
-0.0 2907.54089
-0.0 2912.08984
-0.0 2916.63879
-0.0 2921.18683
-0.0 2925.73456
-0.0 2930.28198
-0.0 2934.82849
-0.0 2939.37561
0.0 2943.92151
-0.0 2948.46741
-0.0 2953.01239
-0.0 2957.55737
-0.0 2962.10175
-0.0 2966.64581
-0.0 2971.18958
-0.0 2975.73242
-0.0 2980.27557
-0.0 2984.81812
-0.0 2989.35974
-0.0 2993.90137
-0.0 2998.44238
-0.00559468612737 3002.9834
-0.00526984262766 3007.5235
-0.00341807102823 3012.0636
-0.0033501820739 3016.60278
-0.00905382687517 3021.14197
-0.0050382335081 3025.68054
-0.0059227572442 3030.21881
-0.00507295575703 3034.75677
-0.00199652140378 3039.29413
-0.00022047405482 3043.83118
-0.00540828945405 3048.36761
-0.00233718599845 3052.90375
-0.00341493954533 3057.43958
-0.00266977050032 3061.9751
-0.00340110771583 3066.5097
-0.00252993742486 3071.04431
-0.00417767613739 3075.578
-0.00762634107263 3080.11169
-0.00549655241228 3084.64508
-0.00674480946262 3089.17755
-0.00510692617897 3093.71063
-0.00135811140029 3098.24219
-0.00335656949631 3102.77374
-0.00283572326926 3107.30499
-0.00143276101995 3111.83563
-0.00514253772934 3116.36597
-0.00189493806263 3120.89569
0.00198625558905 3125.42511
-0.00226672445044 3129.95422
0.00143836706481 3134.48273
-0.00414407415966 3139.01093
-0.00361763862696 3143.53882
-0.00208485485382 3148.0658
-0.00166436219908 3152.59308
-0.0028575270812 3157.11975
0.00140359517721 3161.64581
-0.00191429780253 3166.17126
-0.00493393544695 3170.69672
-0.000803923859035 3175.22156
-0.00464515922296 3179.74579
-0.00104699515558 3184.27002
-0.00147364767414 3188.79333
-0.00337229205767 3193.31665
-0.00266243015344 3197.83936
-0.00213644929942 3202.36176
-0.00324778805127 3206.88354
-0.00388710509396 3211.40503
-0.00272763517505 3215.92651
-0.00144173399436 3220.44647
-0.00238212651783 3224.96704
-0.000969277515714 3229.48639
-0.00331578740716 3234.00604
-0.00130689307759 3238.52509
-0.00274866375928 3243.04352
-0.00223151180457 3247.56165
-0.00260237887874 3252.07916
-0.00317728860196 3256.59668
-0.00386739374578 3261.11328
-0.00122909576413 3265.62988
-0.00257342069509 3270.14557
-0.000474734434093 3274.66156
-0.00376606914152 3279.17664
-0.00157550746624 3283.6911
-0.00241734170308 3288.20557
-0.0031575394508 3292.71942
-0.00181660954577 3297.23297
-0.00231545837169 3301.74561
-0.00231732048403 3306.25854
-0.00199019111769 3310.77026
-0.00289064464921 3315.28229
-0.000905372664686 3319.7937
-0.00141173706066 3324.3045
-0.000945793777921 3328.815
-0.00211026875621 3333.32489
-0.00191478112223 3337.83478
-0.00434870666855 3342.34406
-0.00167319614172 3346.85303
-0.00376976707564 3351.36078
-0.00316127224945 3355.86914
-0.00350926056489 3360.37659
-0.00335334662564 3364.88342
-0.00233553391726 3369.39026
-0.002925818716 3373.89648
-0.00141332982059 3378.4024
-0.00157854603871 3382.90771
-0.00105740160641 3387.41272
-0.00265719348246 3391.91681
-0.00120680908188 3396.4212
0.000523978502474 3400.92468
-0.00242337891808 3405.42816
-0.0015568554875 3409.93103
0.000312919944263 3414.43329
-0.00412543846641 3418.93555
-0.00167117198349 3423.43689
-0.000313344630242 3427.93793
-0.00219698713027 3432.43866
-0.000965009607881 3436.93878
0.00112787667427 3441.4389
-0.000455772543312 3445.93842
-0.00269624536784 3450.43732
-0.000193766061605 3454.93591
-0.00336120858409 3459.43359
-0.00191646620163 3463.93158
-0.00231000353674 3468.42896
-0.00180202665253 3472.92542
-0.00302530933787 3477.42218
-0.00185986646798 3481.91803
-0.00341214573022 3486.41357
-0.00222076132085 3490.90881
-0.00316944549967 3495.40314
-0.00170497407806 3499.89777
-0.00307406221004 3504.39148
-0.00113877137084 3508.88489
-0.00204346746535 3513.37799
-0.00136270570862 3517.87048
-0.00115298511695 3522.36267
-0.00276733020661 3526.85425
-0.00267332071708 3531.34552
-0.00194322111191 3535.83649
-0.000872860803868 3540.32684
-0.000820973527181 3544.81659
-0.00105641105643 3549.30634
-0.0012055554025 3553.79517
-0.000472839667903 3558.2843
-0.000981323611391 3562.77222
-0.000834423146361 3567.26013
-0.000826385622516 3571.74774
-0.00152895101904 3576.23444
-0.000564441027597 3580.72113
-0.00150258471997 3585.20721
-0.0011718091214 3589.69299
6.14733688573e-05 3594.17786
-0.000875677750016 3598.66302
-0.00230568288761 3603.14697
-0.00123773022064 3607.63123
-0.000440296139733 3612.11456
-0.00153097585661 3616.5976
0.000162800643387 3621.08032
-4.63718080709e-05 3625.56244
-0.00155207019279 3630.04456
-0.0018578704111 3634.52576
-0.00088295584462 3639.00696
-0.000591911677507 3643.48663
2.16441554591e-05 3647.96722
0.000655413330564 3652.4469
0.0012928301493 3656.92596
0.000929873405385 3661.40472
-0.000405809746441 3665.88287
-0.00127911301277 3670.36102
-0.000212255210004 3674.83826
-0.000102734149904 3679.31549
-0.000482900470033 3683.79181
-0.00132528420967 3688.26843
-0.000774423874026 3692.74384
-0.000649069041593 3697.21924
-0.000628971786962 3701.69403
-0.00125255729301 3706.16821
-0.00108283066865 3710.6427
-0.00124671689211 3715.11566
-0.000523204649048 3719.58923
-0.00162306029763 3724.06158
-0.000851668992764 3728.53424
-0.00169442532441 3733.00568
-3.70254920967e-05 3737.47711
-0.000707831807402 3741.94794
-0.0009874022692 3746.41846
-0.000763618256621 3750.88898
-0.000503347735686 3755.35828
-0.000777210817074 3759.82758
-0.00053402999103 3764.29596
-0.00172667161393 3768.76465
-0.00111743153776 3773.23242
-0.00105587398596 3777.69989
-0.00110922319098 3782.16675
-0.00155030668093 3786.6333
-0.00167290191136 3791.09985
-0.00061148255885 3795.56519
-5.71321122601e-05 3800.03052
-0.000783398909437 3804.49524
-0.00171617948609 3808.95996
-0.000700853420763 3813.42377
-0.00126647399967 3817.88727
-0.00114105438874 3822.35046
-0.000899970661626 3826.81274
-0.000264746409927 3831.27533
-0.000809371202385 3835.73669
-0.000238985549901 3840.19836
-0.000502371975146 3844.65912
-0.00119858327831 3849.11957
-0.00066875223528 3853.57971
-0.000552419961163 3858.03925
-0.000889472719156 3862.49847
-0.000379338240121 3866.95679
-0.000861023767925 3871.41541
-0.00112743872667 3875.87311
-0.000119272809972 3880.33051
-0.000709636698695 3884.78729
-0.000697082260817 3889.24408
-0.000873447262432 3893.69995
-0.000883009452218 3898.15552
-0.000361501653453 3902.61078
-0.000162126311999 3907.06543
-0.000790588668455 3911.52008
4.75451392926e-05 3915.97351
-0.000590418221598 3920.42725
-0.000952340269621 3924.87976
-0.000248844036029 3929.33289
2.54021124508e-05 3933.78479
-0.000631586228343 3938.23639
-0.00185693364548 3942.68768
-0.000105772705374 3947.13837
-0.000291212444019 3951.58905
-0.000759809115724 3956.03851
-0.000519241121273 3960.48798
-0.000899285579156 3964.93683
0.000296538034061 3969.38568
0.000436873747498 3973.83392
-0.000992102503163 3978.28156
-0.000504019561739 3982.72888
-0.00052446467067 3987.1756
-0.000415774799623 3991.62201
-0.00031830392621 3996.06781
-0.000424615389377 4000.51361
0.000227572121123 4004.95819
-0.000294973034063 4009.40308
-2.85220666703e-05 4013.84705
-6.03165870879e-05 4018.29102
0.000522579276081 4022.73438
0.000193820164239 4027.17682
0.00209357976359 4031.61926
0.00693698070479 4036.0611
0.0241431305234 4040.50293
0.0497744272389 4044.94385
0.0596487117084 4049.38446
0.0508264271791 4053.82477
0.0287341532772 4058.26447
0.0162986916237 4062.70386
0.0081438257097 4067.14233
0.00626594599201 4071.58081
0.00763564972303 4076.01868
0.00891985407982 4080.45624
0.00774262051253 4084.89319
0.00565070783107 4089.33014
0.00330754495536 4093.76617
0.00331592346595 4098.2019
0.00355271589316 4102.63702
0.0030201253843 4107.07184
0.0032458170838 4111.50635
0.00239204724172 4115.94025
0.00332183076115 4120.37384
0.00360728019862 4124.80682
0.00414946868778 4129.23981
0.00481276829804 4133.67126
0.00461936118985 4138.10333
0.00493906280733 4142.53479
0.0054203573373 4146.96533
0.00488715879367 4151.39587
0.00653601270363 4155.82581
0.00630595163115 4160.25543
0.00665338218965 4164.68414
0.00707850408209 4169.11285
0.00737927695279 4173.54065
0.00705543461397 4177.96875
0.00815246496145 4182.39594
0.00797670166178 4186.82281
0.0085960109461 4191.24908
0.00905307397599 4195.67505
0.00936985021461 4200.10071
0.0101375672827 4204.52545
0.0110881307636 4208.9502
0.0106401618652 4213.37372
0.0112878445547 4217.79785
0.012256205963 4222.22107
0.0122358925739 4226.64368
0.0128001635666 4231.06628
0.0139076756464 4235.48798
0.0131637770778 4239.90967
0.0146524718366 4244.33044
0.0137330431209 4248.75092
0.0148700691035 4253.17078
0.0153637729001 4257.59064
0.0155711102463 4262.00989
0.0161567405527 4266.42853
0.0160121306516 4270.84686
0.0175179115015 4275.26459
0.0173184061969 4279.68201
0.0190189776736 4284.09912
0.0189435863644 4288.51563
0.0191831295513 4292.93121
0.020430624877 4297.34711
0.0203014230984 4301.76239
0.0212627284405 4306.17706
0.0210395602476 4310.59113
0.0202122951768 4315.00488
0.0217782288018 4319.41833
0.0227080023499 4323.83087
0.0239321938753 4328.24341
0.0244136079084 4332.65533
0.0259409304427 4337.06726
0.030067651681 4341.47827
0.039294451547 4345.88867
0.0811496422743 4350.29877
0.191268395556 4354.70825
0.268784552405 4359.11804
0.270607654373 4363.52661
0.186277071402 4367.93518
0.123815257465 4372.34283
0.0827454190994 4376.75049
0.0561907715552 4381.15723
0.0406684484255 4385.56396
0.0335079530255 4389.9704
0.031368253496 4394.37561
0.0297258989037 4398.78113
0.0297827004314 4403.18573
0.0298112942455 4407.59033
0.0303796490507 4411.99341
0.0307060400043 4416.39709
0.0295648863141 4420.79956
0.0298508246844 4425.20264
0.0302222197951 4429.6051
0.0308906740764 4434.00604
0.0302311945831 4438.40759
0.0315334575757 4442.80762
0.0309112587722 4447.20825
0.0315460890035 4451.60767
0.0316355724728 4456.00739
0.0322715792564 4460.40558
0.0311243904492 4464.80438
0.0325829376444 4469.20258
0.0316721398831 4473.59955
0.0324542862391 4477.99713
0.0320561998934 4482.39319
0.0324480270672 4486.78955
0.0324254560587 4491.185
0.0316945959537 4495.58014
0.0321454785136 4499.97498
0.031636696111 4504.36951
0.0324986327699 4508.76343
0.0328190780892 4513.15674
0.032239987497 4517.54974
0.032517554022 4521.94183
0.0321769046126 4526.33392
0.0321188612085 4530.7251
0.0315805150888 4535.11688
0.0321695003412 4539.50684
0.0318362639368 4543.8974
0.0318770610829 4548.28735
0.0316074926756 4552.67639
0.0313941101909 4557.06543
0.0314604061175 4561.45325
0.0310636683215 4565.84137
0.0306927193959 4570.22858
0.0304195490803 4574.61578
0.0313711578353 4579.00208
0.0305606224478 4583.38867
0.0303867201525 4587.77405
0.0303645375831 4592.15912
0.0298057233439 4596.54388
0.0297431450113 4600.92773
0.0288338959222 4605.31189
0.0293779284115 4609.69513
0.0285083669799 4614.07806
0.0294045007075 4618.46008
0.027964903905 4622.84241
0.0276560507365 4627.22351
0.0280846799139 4631.60461
0.0279251807086 4635.98541
0.0289440706716 4640.3653
0.0279990773841 4644.74518
0.0273556603652 4649.12384
0.0268931408408 4653.50281
0.02626751373 4657.88086
0.0262796309631 4662.25891
0.0259773029603 4666.63605
0.025856291628 4671.01318
0.0253378881124 4675.39001
0.0260978437617 4679.76563
0.025540668253 4684.14124
0.0243201391887 4688.51593
0.025009350716 4692.89063
0.0251532119265 4697.2644
0.0246459748537 4701.63849
0.0244452237497 4706.01135
0.0234401759534 4710.38422
0.0233252606097 4714.75677
0.0236068762871 4719.12811
0.023466501172 4723.50006
0.0236368503512 4727.87048
0.0228659942341 4732.24121
0.0233984517789 4736.61072
0.0222921368043 4740.98053
0.0219367675402 4745.34943
0.0219360093334 4749.71802
0.0217079884275 4754.0863
0.0212451641034 4758.45367
0.0205230289406 4762.82104
0.0206622196236 4767.1875
0.0213335535806 4771.55426
0.0207893865788 4775.91949
0.0205272105755 4780.28503
0.0201841623881 4784.64966
0.0198905276821 4789.01428
0.0203161605491 4793.3786
0.0203052453916 4797.7417
0.0200786125462 4802.1051
0.020356286634 4806.46698
0.021446933921 4810.82947
0.0221858786408 4815.19073
0.0226121815349 4819.552
0.0228763553237 4823.91266
0.0251669754726 4828.27301
0.0263858278612 4832.63306
0.0293103397156 4836.99188
0.0307632545206 4841.35101
0.0337892605421 4845.70923
0.0370828926736 4850.06744
0.0397372998602 4854.42413
0.0446191863091 4858.78174
0.0475402734394 4863.13782
0.0502874022309 4867.4939
0.0512560731492 4871.84998
0.0515754160436 4876.20453
0.0500687539548 4880.55939
0.0485418718571 4884.91333
0.0469696671442 4889.26727
0.0448776425703 4893.6203
0.0423101314803 4897.97302
0.0412976684605 4902.32513
0.0389474667695 4906.67755
0.0386207902896 4911.02905
0.0382945121166 4915.37964
0.0368010843969 4919.73022
0.0350009497383 4924.0799
0.034106553388 4928.42957
0.0329594897182 4932.77832
0.031727431151 4937.12738
0.0299315066321 4941.47491
0.0292801195604 4945.82275
0.0277567245924 4950.17029
0.0269851100971 4954.5166
0.0267313250821 4958.86292
0.0258697591419 4963.20831
0.0244873574883 4967.55402
0.0241678321127 4971.8985
0.023222802034 4976.24298
0.0224674456015 4980.58655
0.0215168465704 4984.93042
0.0204472103779 4989.27368
0.0202258343509 4993.61572
0.0198121659314 4997.95807
0.0191587375805 5002.29919
0.0186762398689 5006.64063
0.0178696863732 5010.98083
0.0175036489438 5015.32104
0.0170549908203 5019.66064
0.01656661889 5023.99994
0.016729522672 5028.33893
0.0160952752151 5032.677
0.0163358476774 5037.01477
0.0157484734487 5041.35193
0.0156617603253 5045.68909
0.0157660358491 5050.02502
0.0156243759833 5054.36127
0.0154716194629 5058.69629
0.0157522963228 5063.03162
0.0160154961404 5067.36603
0.0159038596462 5071.69983
0.0159538077421 5076.03363
0.0160558845547 5080.36621
0.0162485086032 5084.6994
0.0160253105367 5089.03107
0.0167188532979 5093.36304
0.0164038468524 5097.69379
0.0171192721241 5102.02484
0.016828609168 5106.35529
0.017375974476 5110.68481
0.0173357792701 5115.01434
0.0175423626558 5119.34265
0.0173863172765 5123.67126
0.0167938643519 5127.99927
0.0171306247889 5132.32605
0.0169533218769 5136.65344
0.0176180584326 5140.97961
0.0173204283803 5145.30579
0.0170559106176 5149.63135
0.0172840694247 5153.95691
0.0170049501433 5158.28064
0.0168291049606 5162.60498
0.0166451824732 5166.92871
0.0168688786645 5171.25183
0.0164864796422 5175.57373
0.0166471814046 5179.89624
0.0160059894556 5184.21753
0.0157254553831 5188.53943
0.0156258533149 5192.86072
0.0153015912434 5197.18018
0.015074428229 5201.50024
0.0151589699595 5205.81909
0.014864570327 5210.13855
0.0142157900366 5214.45679
0.0143310450876 5218.77502
0.0136230241354 5223.09204
0.013424579124 5227.40906
0.0133544272691 5231.72546
0.0132925408185 5236.04187
0.0132232465552 5240.35767
0.012674448712 5244.67224
0.0123193519338 5248.98682
0.0125396307869 5253.30078
0.0122703995866 5257.61475
0.0117717774448 5261.92749
0.0118827779011 5266.24023
0.0118433377703 5270.55237
0.0116479936065 5274.86389
0.0117084335936 5279.17542
0.010947059543 5283.48572
0.0113771932118 5287.79663
0.0113830226176 5292.10571
0.0109591299529 5296.41541
0.0107645853697 5300.72388
0.0109328812318 5305.03235
0.0101543491254 5309.34082
0.0105582256213 5313.64746
0.0105450075606 5317.95532
0.0106848609965 5322.26135
0.0113358173094 5326.56738
0.0120322703245 5330.8728
0.0127624553034 5335.17822
0.0129764726181 5339.48242
0.0126893033195 5343.78662
0.0123056043829 5348.09082
0.0127690438876 5352.39319
0.0135205871177 5356.69617
0.014286112967 5360.99792
0.0158200799535 5365.29968
0.0179720874997 5369.60083
0.0214465563244 5373.90137
0.0250012641915 5378.2019
0.02837327456 5382.50183
0.0315206877752 5386.80115
0.0364513734644 5391.09985
0.0438797468418 5395.39795
0.0547867457584 5399.69543
0.0701482337279 5403.99292
0.0939837588481 5408.28979
0.124997791546 5412.58606
0.155660532149 5416.88171
0.17067925722 5421.17737
0.169300759855 5425.47302
0.162328848281 5429.76685
0.15514345271 5434.06128
0.152089460581 5438.35388
0.149181751332 5442.64771
0.146819583296 5446.9397
0.158330803516 5451.2323
0.233799985444 5455.52307
0.30648171789 5459.81506
0.335607159936 5464.10583
0.277670047794 5468.39539
0.214153900093 5472.68555
0.182955165786 5476.97449
0.159188447709 5481.26282
0.138006562202 5485.55054
0.115171734292 5489.83887
0.0985797659027 5494.12598
0.0842923046923 5498.41309
0.0733191673782 5502.69958
0.0648668169325 5506.98486
0.0571272529725 5511.27075
0.0510717991909 5515.55481
0.044746495503 5519.83948
0.0394276568141 5524.12292
0.0343538953427 5528.40698
0.0310196095968 5532.6886
0.027515982343 5536.97205
0.0244180485767 5541.25366
0.0214242670408 5545.53467
0.0187175284942 5549.81628
0.0163227777156 5554.09607
0.0146213578637 5558.37646
0.0131898789459 5562.65564
0.0116946846843 5566.93481
0.0111666411909 5571.21338
0.00980762268263 5575.49133
0.00912911381498 5579.76929
0.00846788411034 5584.04602
0.00792663578805 5588.32275
0.00738656065404 5592.59888
0.00697140499468 5596.87439
0.00634518589687 5601.14929
0.00615496891829 5605.42419
0.00595831592125 5609.69788
0.00570430613764 5613.97156
0.0053203522096 5618.24524
0.00522866509387 5622.5177
0.00478852652186 5626.79016
0.00498440069458 5631.0614
0.00489572503266 5635.33264
0.0041822402353 5639.60327
0.00454599211364 5643.87329
0.00421251855335 5648.14331
0.00382430147701 5652.41272
0.00351200124471 5656.68213
0.00369265146004 5660.94971
0.00354549980397 5665.2179
0.00354388175937 5669.48425
0.00285865052728 5673.75183
0.00323163502828 5678.01819
0.00352526619526 5682.28394
0.00306136155105 5686.54846
0.00308172783492 5690.81421
0.00293694853335 5695.07874
0.00260685922228 5699.34265
0.00262049189155 5703.60596
0.00248586861709 5707.86865
0.00258271167835 5712.13074
0.00242358791579 5716.39282
0.00248336411905 5720.6543
0.00229450912129 5724.91516
0.00240134401232 5729.17603
0.00223920689828 5733.43567
0.0023892445838 5737.69531
0.00235924250085 5741.95435
0.00262045319542 5746.21277
0.00306524673349 5750.47119
0.00288312034762 5754.72839
0.00479451578161 5758.9856
0.0158993491266 5763.24158
0.0337550470725 5767.49817
0.0430676556062 5771.75293
0.0386036769269 5776.0083
0.0279502026937 5780.26306
0.034705087358 5784.51721
0.047060863552 5788.77136
0.0540771442699 5793.02429
0.0488900259767 5797.27661
0.0366289228898 5801.52832
0.0320823979581 5805.78064
0.029129441482 5810.03113
0.0269619593527 5814.28223
0.0262832590143 5818.53271
0.0263110523246 5822.78198
0.028968421256 5827.03125
0.0306959678326 5831.2793
0.0334021799977 5835.52795
0.0343136095981 5839.77539
0.0345726832283 5844.02283
0.034358224932 5848.26965
0.0326303167353 5852.51587
0.0322850273009 5856.76208
0.0312052157945 5861.00647
0.0334292978755 5865.25208
0.0382042717666 5869.49524
0.0409108860731 5873.73962
0.0406498707937 5877.98218
0.0354661602996 5882.22534
0.0309541781416 5886.46729
0.0273981263889 5890.70984
0.0249394054416 5894.95117
0.0230829213137 5899.19128
0.02182446302 5903.43201
0.0209363158184 5907.67151
0.0205563890039 5911.91101
0.0216106759193 5916.1499
0.0228899312856 5920.38818
0.0260411163343 5924.62524
0.029570587424 5928.86292
0.0309751139938 5933.10059
0.0300532794132 5937.33582
0.0267566598162 5941.57227
0.0228939279804 5945.8075
0.0200053499113 5950.04272
0.018009882824 5954.27673
0.0162670423217 5958.51074
0.0152675627737 5962.74353
0.0142766832392 5966.97632
0.0133101993198 5971.20911
0.0135218144055 5975.44067
0.0134772394111 5979.67224
0.0150635070196 5983.9032
0.0171562249148 5988.13354
0.0182404950118 5992.36328
0.0192553600424 5996.59241
0.019023071602 6000.82153
0.0178033484652 6005.05005
0.0161916868468 6009.27795
0.0142881984517 6013.50525
0.012969788854 6017.73254
0.0117388622373 6021.95862
0.0104173120892 6026.18408
0.0095776486037 6030.40955
0.00880540106169 6034.6344
0.00870386479464 6038.85925
0.00897477490347 6043.0835
0.00875054973729 6047.30652
0.00896823496622 6051.52893
0.00944098271937 6055.75195
0.00941424696745 6059.97375
0.0105734067926 6064.19495
0.0118335491672 6068.41553
0.0128887868611 6072.63672
0.0152694347506 6076.85608
0.0174574041978 6081.07605
0.021001379065 6085.2948
0.0272441404786 6089.51294
0.0351441078981 6093.73108
0.0486300990797 6097.948
0.0758258616192 6102.16553
0.130402728957 6106.38123
0.195337739497 6110.59753
0.239210113296 6114.81262
0.234465335551 6119.02832
0.205093694661 6123.24219
0.172770862089 6127.45605
0.153143659636 6131.66931
0.13715685782 6135.88196
0.12325458781 6140.0946
0.109871348806 6144.30664
0.0986799430349 6148.51807
0.0865682846723 6152.72827
0.0734104418957 6156.93909
0.0617754393609 6161.14929
0.0527986660694 6165.35889
0.0451896722045 6169.56787
0.0392797250904 6173.77563
0.0345985079175 6177.9834
0.0307606425488 6182.19055
0.0286549822214 6186.39832
0.0264455390636 6190.60364
0.0259402836959 6194.81018
0.0255192523216 6199.01611
0.0256101847824 6203.22083
0.026438305115 6207.42493
0.027290610886 6211.62842
0.0268825205736 6215.83191
0.0260231347801 6220.03418
0.0269952716975 6224.23706
0.0279512662439 6228.43872
0.0285608913432 6232.64038
0.0290226768448 6236.84143
0.0297654701723 6241.04126
0.0300346670569 6245.2417
0.0302778713147 6249.44031
0.0312092045044 6253.64014
0.0311568353681 6257.83752
0.0306593289202 6262.03552
0.0297610183347 6266.2323
0.0283894867559 6270.42969
0.0272677662154 6274.62585
0.0266795312119 6278.82141
0.0247069335214 6283.01697
0.024915195511 6287.2113
0.0238939947294 6291.40625
0.0244838657545 6295.59998
0.0273966508823 6299.79309
0.0316468231085 6303.9856
0.0362514932588 6308.1781
0.0385508957827 6312.37
0.0351288585986 6316.56067
0.0286367095762 6320.75195
0.0231195261072 6324.94202
0.020133179407 6329.13208
0.0161064895898 6333.32092
0.0128536031628 6337.50977
0.010977083602 6341.69739
0.00909046547468 6345.88562
0.00728754564988 6350.07263
0.00710332879642 6354.25964
0.00644344612098 6358.44543
0.00562410056968 6362.63123
0.00507736541766 6366.81641
0.00476233101528 6371.00037
0.00478536818735 6375.18494
0.00449584734286 6379.36829
0.0038234220633 6383.55164
0.00425390422059 6387.73438
0.00410126992066 6391.9165
0.00352588461343 6396.09863
0.00323384016133 6400.27893
0.00347791300468 6404.45984
0.00394352960963 6408.63953
0.00308646879406 6412.81921
0.00332466969246 6416.99829
0.00339563263948 6421.17676
0.00285202399431 6425.35461
0.00360818323944 6429.53247
0.00402839348537 6433.70972
0.00371493012965 6437.88635
0.00404499565471 6442.06177
0.00390170525726 6446.23718
0.00379693082062 6450.4126
0.00404505164448 6454.58618
0.00386985724138 6458.76099
0.00389915833447 6462.93396
0.00353998148355 6467.10693
0.00400607970936 6471.27991
0.00378008274813 6475.45166
0.00406480371041 6479.62341
0.00408525693729 6483.79333
0.00431435598571 6487.96448
0.00515714563317 6492.13379
0.00629305500289 6496.3031
0.00806214967349 6500.4718
0.0100845690501 6504.63989
0.0108877891776 6508.80859
0.0106465982768 6512.97546
0.00905463843544 6517.14233
0.00859699015682 6521.30859
0.00772142608872 6525.47485
0.00857038728533 6529.63928
0.00749646942936 6533.80432
0.0071997799744 6537.96814
0.00680371369928 6542.13196
0.00578604156985 6546.29578
0.00491239403138 6550.45837
0.00474173987227 6554.62036
0.00494593257686 6558.78174
0.00429776336235 6562.94312
0.00467846298085 6567.10327
0.00436297960591 6571.26404
0.00446798130723 6575.42358
0.00477703179273 6579.58252
0.00376399683865 6583.74084
0.00410791253985 6587.89917
0.00353121762151 6592.05688
0.00338824651113 6596.21338
0.00376929428955 6600.37048
0.00318568280018 6604.52637
0.00243303472175 6608.68164
0.00354419014211 6612.83691
0.00528676789496 6616.99158
0.00657413550687 6621.14502
0.00685364073547 6625.29846
0.00638086800325 6629.45129
0.00623021494249 6633.60413
0.00574410610056 6637.75635
0.005149575366 6641.90674
0.00411757223802 6646.05835
0.00424532919632 6650.20813
0.00428554888874 6654.35791
0.00311766779731 6658.50769
0.00339010217658 6662.65625
0.00322298801764 6666.8042
0.00325479887347 6670.95215
0.00354260122594 6675.09949
0.00311964075133 6679.24622
0.00364001983198 6683.39233
0.0031213157562 6687.53784
0.00242073443573 6691.68335
0.00320583725878 6695.82825
0.00300427748127 6699.97192
0.0024428049139 6704.1156
0.00327401642285 6708.25867
0.00298310235777 6712.40173
0.0027276102269 6716.54358
0.00279469681988 6720.68481
0.00220080303979 6724.82605
0.00252624200328 6728.96667
0.00188841369577 6733.10669
0.00251590389653 6737.24609
0.00168855080639 6741.38489
0.00239861162027 6745.52307
0.00232966453306 6749.66064
0.00228980720635 6753.79822
0.00219038650574 6757.93579
0.00147440626625 6762.07153
0.00241793598964 6766.20789
0.00201758355596 6770.34241
0.00210649316726 6774.47754
0.00141842771754 6778.61206
0.00167791890306 6782.74597
0.00113474549669 6786.87866
0.00183480842774 6791.01135
0.00181134648301 6795.14404
0.00213794642269 6799.27551
0.00283914440605 6803.40698
0.00315113041417 6807.53723
0.00235066969785 6811.66748
0.00310259658429 6815.79712
0.00299938328271 6819.92615
0.00293757823585 6824.05457
0.00254711445172 6828.18298
0.00236599901878 6832.31018
0.00221529545274 6836.43738
0.00217033439352 6840.56335
0.0011775473405 6844.68994
0.00258569036022 6848.81531
0.00237778483512 6852.93945
0.00230924863838 6857.06482
0.00393917251533 6861.18774
0.00436528150198 6865.31128
0.00374264189431 6869.43481
0.00520202206589 6873.55713
0.00599831190799 6877.67883
0.00575240827797 6881.79932
0.00558370933867 6885.92041
0.00368056095293 6890.04089
0.00366171871636 6894.16016
0.00338564109959 6898.27881
0.0031980504469 6902.39868
0.00247661710609 6906.51611
0.00236323947397 6910.63354
0.002179998592 6914.75098
0.000717541052166 6918.86719
0.00195736359735 6922.9834
0.00215110434912 6927.099
0.0025784366775 6931.2146
0.00452506570438 6935.32837
0.00459798384862 6939.44214
0.00301457630056 6943.55652
0.00252806678892 6947.66846
0.00232224697021 6951.78101
0.00231688771294 6955.89294
0.000432369940927 6960.00366
0.00137684271017 6964.11438
0.000806754317026 6968.2251
0.00154341194231 6972.33459
0.000269716831752 6976.44409
0.00029524947132 6980.55298
-0.000166962376161 6984.66064
0.000359574695218 6988.76831
-0.000415424646625 6992.87537
-9.52486130548e-05 6996.98181
-3.34331441542e-05 7001.08826
-0.000723000179504 7005.19348
0.000482506467844 7009.2981
-0.000540156923488 7013.40271
2.94644477229e-05 7017.50732
0.00159780760994 7021.61011
0.000618324668453 7025.7135
0.00108193275592 7029.81567
0.000994502484205 7033.91724
0.0010093272016 7038.0188
0.00213327975307 7042.11914
0.00234303252482 7046.21948
0.00294116103423 7050.31921
0.00514539521817 7054.41895
0.00727836424212 7058.51746
0.00975752549318 7062.61536
0.0119267002622 7066.71265
0.014827479999 7070.81055
0.0148976662605 7074.90662
0.0138601744553 7079.0033
0.0149089238669 7083.09814
0.0186466523425 7087.19299
0.0181470515901 7091.28784
0.0179319030516 7095.38147
0.0140303183364 7099.4751
0.0104622756825 7103.5675
0.00972686688506 7107.66052
0.00978388944245 7111.75171
0.0123397479386 7115.8429
0.0141425732144 7119.93347
0.0147389692512 7124.02405
0.0145864488768 7128.11401
0.011181308435 7132.20276
0.00849713793954 7136.2915
0.00572506228353 7140.37964
0.0058270767081 7144.46777
0.00407426622617 7148.55408
0.00282717146542 7152.64099
0.00152787540608 7156.72668
0.00119463105424 7160.81177
0.000687871033645 7164.89746
0.000176270121863 7168.98132
0.000263501206585 7173.06519
-0.000907014750455 7177.14844
-0.000315513074325 7181.23108
-0.000668814776433 7185.31372
0.000505328898114 7189.39514
-0.000128634823743 7193.47595
-0.000457353657424 7197.55676
0.00079907384237 7201.63696
-0.00099030531376 7205.71716
-0.00084391366542 7209.79614
-0.000787171968202 7213.87451
-0.000316442402379 7217.95227
-0.00130171576592 7222.02942
-0.000782136652118 7226.10718
-0.00064564169848 7230.18311
-0.000803317729219 7234.25903
-0.000384790929186 7238.33374
-0.00163709471365 7242.40906
-0.000261446746705 7246.48376
-0.000482007065296 7250.55725
6.79797960651e-05 7254.63013
-0.000247435891729 7258.703
-0.000311261563194 7262.77466
-0.000771900844795 7266.84631
-0.00106027715063 7270.91797
-0.00147827813129 7274.98779
-0.000826873127239 7279.05823
-0.000620991826494 7283.12805
-0.00038150353091 7287.19666
-0.000253493068414 7291.26526
-0.000562501428382 7295.33264
0.000411709813143 7299.40063
-0.00120150714909 7303.4668
-0.000174448917678 7307.53357
0.000217725483818 7311.59851
0.000201490285773 7315.66406
-0.00120572662487 7319.729
-0.000469092971796 7323.79272
-0.00115545217862 7327.85645
-0.000893091777758 7331.91895
-0.00169216098126 7335.98206
-0.000451202268987 7340.04333
0.000184262686584 7344.10522
-0.00131266336619 7348.16528
-0.00163635811435 7352.22656
-0.000903716735802 7356.28662
-0.0012430387672 7360.34546
-0.00094987523192 7364.4043
-0.0017732908993 7368.46252
-0.00101182455845 7372.52014
-0.000397858204295 7376.57715
-0.00109003850998 7380.63354
-0.000268400827762 7384.68933
-0.0013461568526 7388.74512
-0.000509499097691 7392.80029
-0.00187771032398 7396.85486
-0.000252417762134 7400.90881
-0.000446060107541 7404.96216
-0.000817837234984 7409.0155
0.000360602953996 7413.06702
0.000296504079672 7417.11914
-0.000303027536062 7421.17004
-0.000937699168833 7425.22095
-0.00069532231292 7429.27124
-0.000745905567449 7433.32031
0.000168843446396 7437.37
-0.000454259124392 7441.41785
-0.000998812128987 7445.46631
5.25289720849e-06 7449.51355
-0.00079024470249 7453.56079
-0.000660385187499 7457.6062
-0.000513008639887 7461.65283
-0.000566167385406 7465.69824
-0.000231305811203 7469.74243
-0.000402919041295 7473.78723
-0.00103955001099 7477.8302
-0.00137474847177 7481.87378
-0.00147158039813 7485.91614
-0.000904518859164 7489.9585
-0.000911074381212 7493.99963
-0.001361580333 7498.04077
-0.000494843933359 7502.0813
-0.00100220728439 7506.12122
-0.000247820987017 7510.16052
-0.000577494278592 7514.19922
-0.000966224203446 7518.23792
-0.000510678856044 7522.27478
-0.000532233340257 7526.31226
-0.0020667096425 7530.34851
-0.00162807211874 7534.38477
-0.000541855423535 7538.42102
-0.00113473112942 7542.45544
0.00010173983106 7546.48987
-0.00292281176835 7550.52368
-0.00212735648944 7554.5575
-0.000716124543101 7558.59009
-0.00117330318984 7562.62268
-0.00108249060625 7566.65405
-0.00101033689957 7570.68542
-0.000756446651648 7574.7168
-0.00142915728527 7578.74634
-0.0018263249847 7582.77588
-0.00167503978632 7586.8042
-9.66386342993e-05 7590.83374
-0.0015940416517 7594.86084
-0.00216959193215 7598.88916
-0.000393206831426 7602.91504
-0.00107314266059 7606.94214
-0.0015049916566 7610.96802
-0.000314144003454 7614.99268
-0.000767243503868 7619.01733
-0.00221855508109 7623.04199
-0.00309656641258 7627.06543
-0.000842578162511 7631.08826
0.00055352628929 7635.11108
-0.00104684751018 7639.13208
-0.00129336426149 7643.15369
-0.00194020388575 7647.17529
-0.0012589574203 7651.19568
-0.00124166229484 7655.21545
-0.0012691299977 7659.23462
-0.00300673732686 7663.25317
-0.00207062365585 7667.27112
-0.00114949744939 7671.28845
-0.0014053153888 7675.30518
-0.000839379511221 7679.32251
-0.00118793219115 7683.33862
-0.000431208289075 7687.35413
-0.000688034619292 7691.36841
-0.00127283842672 7695.38269
-0.00174541112048 7699.39636
-0.00168179238481 7703.41003
-0.000557649613832 7707.42249
-0.000607116775083 7711.43433
-0.00146422450602 7715.44617
-0.00323538167481 7719.4574
-0.00090213098408 7723.46802
-0.00129125473824 7727.47803
-0.00129758847289 7731.48682
-0.00174168158262 7735.49622
-0.000993532379419 7739.50439
-0.00038496913396 7743.51196
-0.000461058242986 7747.51892
-0.00229974888271 7751.52588
-0.000690064919747 7755.53162
0.00171030700698 7759.53735
-0.00225655993068 7763.54309
-0.00160894019238 7767.54639
-0.000930496752943 7771.5509
-0.00269270310456 7775.5542
-0.000196482505371 7779.5575
-0.00261354725938 7783.55896
-0.00190273655035 7787.56104
-0.00438014558499 7791.56189
-0.00223628008118 7795.56274
-0.00172399940075 7799.56299
-0.00131174163944 7803.56201
-0.00094779912055 7807.56165
-0.000472515626324 7811.56006
-0.00351509034747 7815.55786
-0.000856820266625 7819.55505
-0.00205863211035 7823.55225
-0.00209679327888 7827.54761
-0.0011726311407 7831.54358
-0.00159199723009 7835.53894
-0.00306829853756 7839.53369
-0.00057539402733 7843.52783
-0.00253331248265 7847.52075
-0.00318827676894 7851.51367
-0.00131393097739 7855.50598
-0.000753972181252 7859.49768
-0.00104097048875 7863.48877
-0.00275650970069 7867.47986
-0.00150863668451 7871.47034
-0.00341569532442 7875.45959
6.70178007314e-05 7879.44885
-7.78951154728e-05 7883.4375
-0.00092468368971 7887.42493
-0.00286523872298 7891.41235
-0.00193516701105 7895.39917
-0.00200291955153 7899.38538
-0.00230862589987 7903.37158
-0.00157171186056 7907.35718
-0.00241627813991 7911.34094
-0.00212397417664 7915.32532
-0.00520771583467 7919.30847
-0.00219735965083 7923.29224
-0.0013542877339 7927.27417
-0.00339451420571 7931.2561
-0.00233595400286 7935.23682
-0.001669566451 7939.21753
-0.00197974376933 7943.19824
-0.000450407425657 7947.17773
-0.000174769641173 7951.15723
-0.00125528150513 7955.1355
-0.00215730841282 7959.11377
-0.00182308282981 7963.09082
-0.00201723089744 7967.06787
-0.00274606892062 7971.0437
-0.000147211644509 7975.01953
-0.00185406754893 7978.99536
-0.00370469082778 7982.96936
-0.0035624426558 7986.94397
-0.0033222693369 7990.91736
-0.00240319667621 7994.89014
-0.00286553307399 7998.8623
-0.00148133199472 8002.83447
-0.000249892601566 8006.80542
-0.00256791592167 8010.77637
-0.00417890912548 8014.7467
-0.00297441179054 8018.71643
-0.000712504123653 8022.68555
-0.00222919943398 8026.65405
0.0020227173129 8030.62256
-0.00124623951414 8034.58923
-0.00204494644423 8038.55652
-0.000853453216646 8042.52258
-0.00308919701653 8046.48804
-0.00246280183365 8050.4541
-0.00186667986309 8054.41833
-0.00116624006885 8058.38257
-0.00282373058638 8062.34619
-0.00239288841775 8066.30859
-0.00352261593984 8070.271
-0.00281884684816 8074.23279
-0.00282924812907 8078.19458
-0.00308081247323 8082.15515
0.000769513295055 8086.11572
-0.000993492303022 8090.07507
-0.0025647329124 8094.03381
-0.00331230988099 8097.99194
-0.00111370143805 8101.95068
-0.00143750580145 8105.90759
0.000437361799419 8109.8645
0.00158091301883 8113.8208
0.00198197227515 8117.77649
-9.6498563905e-05 8121.73157
-0.00161360105643 8125.68665
-0.00150983560402 8129.6405
0.000374660224759 8133.59375
-0.00224587995528 8137.54639
-0.00133852626329 8141.49841
-0.00382941319448 8145.45105
-0.00207775275066 8149.40186
-0.00289107634255 8153.35266
-0.0012770915508 8157.30347
-0.00452987245822 8161.25244
-0.00135715334393 8165.20203
-0.00225064735435 8169.14978
-0.00348365917886 8173.09753
-0.00341835029092 8177.04468
-0.000586280923571 8180.99182
-0.00434198409314 8184.93774
-0.000929956678521 8188.88367
-0.00525375458873 8192.82898
-0.00276851843512 8196.77307
-0.00474253628811 8200.71716
-0.00253545294012 8204.66003
-0.00130944029419 8208.60291
-0.00331672497299 8212.54517
-0.00176200748367 8216.48743
-0.00371920100122 8220.42786
-0.00358143968626 8224.3689
-0.00303799072074 8228.30872
-0.000632223788891 8232.24792
-0.0028615966573 8236.18774
-0.00437577993362 8240.12512
-0.00553230606335 8244.06311
-0.00256306232717 8247.99988
-0.00253015376097 8251.93665
-0.00233259314485 8255.8728
-0.00159713501473 8259.80835
-0.00338491686462 8263.74329
-0.000485653202157 8267.67761
-0.00157209970722 8271.61194
-0.00132603116357 8275.54443
-0.00347177910155 8279.47754
5.54792928351e-05 8283.40942
-0.00344755259084 8287.34131
-0.00387847773475 8291.27136
-0.00210585432814 8295.20264
-0.0024927694667 8299.13208
-0.00394649387166 8303.06152
-0.00416968844149 8306.99097
-0.00388125305208 8310.91797
-0.00256173309296 8314.84619
-0.00295782849603 8318.77319
-0.000720807544608 8322.7002
-0.00350026918826 8326.62537
-0.00573678758281 8330.55054
0.00154393688059 8334.4751
-0.00279689402945 8338.39966
-0.00391228024198 8342.32361
-0.00410690571762 8346.24634
-0.00390257900802 8350.16907
-0.00396472860198 8354.09058
-0.00506066451243 8358.01208
-0.00436096227492 8361.93298
-0.00365488710782 8365.85327
-7.64968261632e-05 8369.77295
-0.00382308362399 8373.69202
-0.00259982304561 8377.61047
-0.00274816958415 8381.52832
-0.00104816825393 8385.44617
-0.00420657415857 8389.36218
-0.0041273146376 8393.27942
-0.00292583855383 8397.19421
0.00090393130251 8401.11023
-0.00275387665449 8405.0238
-0.00252512937507 8408.9386
-0.00102197545347 8412.85217
-0.00154370159249 8416.76453
-0.00353525413266 8420.67749
-0.00192943386463 8424.58862
-0.00259921393191 8428.49976
-0.00198597010876 8432.41028
-0.00328187509002 8436.32019
-0.00338833362274 8440.22949
-0.00258277933204 8444.13879
-0.003367079813 8448.04749
-0.00386870914643 8451.95496
0.000796049542255 8455.86182
-0.00449910677363 8459.76807
-0.00363600204983 8463.67432
-0.00350786091615 8467.57996
-0.0037772381444 8471.48499
-0.00284411964498 8475.38879
-0.00523058490498 8479.2926
0.00265067767623 8483.19641
-0.00405836253555 8487.09839
-0.00382088400302 8491.00098
-0.00491745485519 8494.90234
0.000326006653489 8498.8031
-0.000294497750123 8502.70325
-0.00227447123673 8506.60339
-0.00641885303187 8510.50171
-0.00660552410179 8514.40125
-0.000985772214617 8518.29895
-0.00252716399767 8522.19604
-0.00402804727825 8526.09314
-0.00682315204733 8529.98901
-0.00480862802408 8533.8855
-0.00143490657392 8537.78015
-0.00505443657082 8541.6748
-0.00539304355465 8545.56885
-0.000145414260599 8549.46228
-0.00487619418298 8553.35571
-0.00303442878335 8557.24731
-0.00555585691072 8561.13953
-0.0062824460309 8565.03052
-0.00119049305519 8568.92151
-0.00279123930258 8572.81067
-0.00534252323479 8576.70105
-0.00358610895725 8580.5896
-0.00270895135709 8584.47754
-0.00322288758734 8588.36609
-0.00149705060962 8592.25281
-0.00652262558001 8596.13892
-0.00258716878052 8600.02502
-0.00641457661658 8603.91052
-0.0036422843521 8607.79541
-0.00486773174553 8611.67969
-0.00177195017259 8615.56335
-0.00276734899539 8619.44702
-0.00406403395679 8623.32947
-0.0019735284344 8627.21069
-0.00298412758939 8631.09253
-0.00814908271667 8634.97314
-0.00688016303204 8638.85376
-0.00709432534368 8642.73315
-0.00532767145044 8646.61255
-0.00318093172802 8650.49072
-0.00835986696982 8654.3689
-0.00223794290538 8658.24707
-0.00243350908569 8662.1228
-0.00485052054457 8665.99915
-0.00543266984347 8669.87488
-0.000415923412563 8673.75061
-0.00373452485812 8677.62451
-0.00520079427064 8681.49841
-0.00516519017474 8685.3717
-0.00557535344427 8689.24438
-0.00253720637451 8693.11707
-0.00358163326282 8696.98853
-0.00457440346132 8700.85938
-0.00512374310414 8704.72961
-0.00574533360206 8708.59985
-0.0036046028224 8712.46887
-0.010196906394 8716.33789
-0.0043829816195 8720.20569
-0.0040068282792 8724.07349
-0.00180216410553 8727.94067
-0.00786572085493 8731.80725
-0.00750576287525 8735.67322
-0.00665959884083 8739.53796
-0.00642690869567 8743.40332
-0.0119894886338 8747.26624
-0.00566978197594 8751.13037
-0.00754590976323 8754.99329
-0.00196915760865 8758.85559
-0.00126465369327 8762.71729
-0.00457769769527 8766.57898
-0.00669057036182 8770.44006
-0.0091770363836 8774.29932
-0.00484210488002 8778.15918
-0.00805489520199 8782.01782
-0.00311011992543 8785.87585
-0.00727472323993 8789.73389
-0.00202210959771 8793.5907
-0.00919775222319 8797.44751
-0.000856059545313 8801.3031
-0.00467885445116 8805.1593
-0.00557801590428 8809.01367
-0.000938038373536 8812.86804
-0.00242865167383 8816.7218
-0.0066262572519 8820.57434
-0.00711542211701 8824.42749
-0.01003305275 8828.27942
-0.00583257811195 8832.13013
-0.00173511045494 8835.98145
-0.00636206043496 8839.83154
-0.011424665909 8843.68042
-0.00315996447545 8847.53052
-0.00488856608724 8851.37817
-0.00561027536986 8855.22644
-0.00617801782015 8859.07349
-0.00934900419936 8862.92053
-0.00795537454279 8866.76636
-0.0106791415105 8870.61157
-0.00681741585457 8874.4574
-0.00292975074743 8878.30078
-0.00214017214276 8882.14539
-0.00223044919334 8885.98816
-5.51582024799e-05 8889.83093
-0.00200695820649 8893.67249
-0.00177076206854 8897.51465
-0.00522363441982 8901.35498
-0.00812757668578 8905.19531
-0.00220495418279 8909.03503
0.00185031037173 8912.87415
-0.0104598750697 8916.71326
-0.00506440662817 8920.55054
-0.00683800218569 8924.38843
-0.00937836969415 8928.2251
-0.00468875232347 8932.06116
-0.00842166625589 8935.89661
-0.00904347201292 8939.73206
-0.00609785775483 8943.56628
-0.00637890836487 8947.3999
-0.00211731206383 8951.23352
0.000113634454637 8955.06592
-0.0106407985772 8958.89832
-0.0117534730796 8962.72949
-0.00963350615723 8966.56067
-0.00908093113648 8970.39063
-0.00629501101055 8974.22058
-0.0102009386821 8978.04993
-0.00910048399925 8981.87866
-0.00597926594918 8985.70618
-0.000887406160202 8989.53369
-0.00615507222251 8993.36121
-0.00731007498132 8997.18689
-0.0138080551229 9001.01257
-0.00523353034104 9004.83704
-0.00573321985081 9008.66211
-0.0100336201242 9012.48596
-0.00664240622843 9016.3092
-0.0130802948648 9020.13184
-0.00956702186788 9023.95386
-0.00516366781027 9027.77588
-0.00989686794621 9031.59668
-0.00923257212061 9035.41687
-0.000741345754308 9039.23645
-0.00778822015785 9043.05603
-0.00411684710909 9046.875
-0.00642538453042 9050.69275
-0.00699300676184 9054.5105
-0.0103421290005 9058.32642
-0.00255588164294 9062.14294
-0.00388678128494 9065.95825
-0.00806702098069 9069.77417
-0.00955755889115 9073.58826
-0.00715373463071 9077.40234
-0.0077781380689 9081.21582
-0.00773523439066 9085.02869
-0.00722174943757 9088.84033
-0.0108654259128 9092.65198
-0.00207718719535 9096.46301
-0.00932850362041 9100.27344
-0.00843594998122 9104.08325
-0.00818130142356 9107.89246
-0.00474621016737 9111.70105
-0.00777245803649 9115.50903
-0.00666399836681 9119.31641
-0.00299022626448 9123.12317
-0.00356925497872 9126.92932
-0.0101919226527 9130.73547
-0.0014979086242 9134.53979
-0.00470037743747 9138.34473
-0.0033404529099 9142.14783
0.0064935810274 9145.95154
-0.00601724246847 9149.75464
-0.00744047225618 9153.55652
-0.00240534584579 9157.3584
0.000949111664416 9161.15845
-0.00576354933547 9164.95972
-0.0054313787877 9168.75854
-0.00442838886547 9172.55859
-0.00721607952501 9176.3562
-0.000732899906969 9180.15503
-0.00870562155382 9183.95203
-0.000995406000828 9187.74902
-0.00134582744893 9191.5448
-0.00967481989202 9195.34058
-0.00864130144855 9199.13574
-0.00422737329372 9202.92969
-0.00500708342159 9206.72363
-0.0130337244018 9210.51636
-0.0105530138932 9214.30969
-0.00317820690484 9218.10181
-0.00265634072283 9221.89331
-0.00279854401631 9225.6842
-0.00492751325039 9229.47388
-0.0119616035378 9233.26416
-0.00886905363982 9237.05261
0.000967050406467 9240.84106
-0.0130265636078 9244.62891
-0.0112837911578 9248.41675
0.000683381530237 9252.20337
-0.00785825331844 9255.98938
-0.00340673451274 9259.77478
-0.00682506182353 9263.55957
-0.00668383475925 9267.34436
-0.0014623065122 9271.12732
-0.00323184119101 9274.91089
-0.00658205903289 9278.69324
-0.00534681024884 9282.47559
-0.0132915721689 9286.25671
-0.0122311456734 9290.03723
-0.000954312040226 9293.81775
-0.0145685232145 9297.59705
-0.0221808200265 9301.37634
-0.0152441973433 9305.15381
-0.00298224913554 9308.9325
-0.00771003229027 9312.70935
-0.0176442712958 9316.4856
-0.00882543874956 9320.26123
-0.0160770829059 9324.03687
-0.0146912531184 9327.8125
0.00492287796907 9331.5863
-0.0111618154683 9335.36011
-0.0103680793446 9339.13208
-0.000588372761644 9342.90527
0.000216920472141 9346.67664
5.4006269847e-05 9350.448
-0.0092387167896 9354.21814
-0.0101007916234 9357.98889
-0.0176027394848 9361.75842
-0.0139616755918 9365.52673
-0.02701963464 9369.29504
-0.0202793692406 9373.06274
-0.0177853089518 9376.83044
-0.0216275225822 9380.5957
0.00101243380165 9384.36218
-0.00964982926084 9388.12744
-0.0231059853932 9391.89148
-0.0419257323743 9395.65613
-0.0268778435766 9399.41956
-0.0235650853704 9403.18237
-0.014529744525 9406.94458
-0.0208415931092 9410.70557
-0.00898128660383 9414.46655
-0.0293495581155 9418.22693
-0.0154163460238 9421.98669
-0.0147465317472 9425.74646
-0.0123688579603 9429.50562
-0.0258701134911 9433.26294
-0.0221341945776 9437.02026
-0.012138720358 9440.77698
-0.0328016329198 9444.53369
-0.0312577601187 9448.28918
-0.0254914185312 9452.04468
-0.0238142836337 9455.79834
-0.0106465200945 9459.55261
-0.0502162515389 9463.30627
-0.0137491604762 9467.05811
-0.0320478825193 9470.81055
-0.0188448737424 9474.56177
-0.030097164261 9478.31238
-0.00296415586336 9482.06238
-0.0182205064928 9485.81238
-0.014722775911 9489.56116
-0.0233050676075 9493.30933
-0.0300691450271 9497.05811
-0.0258441707324 9500.80505
-0.0408772530781 9504.55139
-0.0385155408297 9508.29773
0.000101142345499 9512.04346
-0.0121713505267 9515.78735
-0.0170132606463 9519.53186
-0.0146687194394 9523.27515
-0.0385558769276 9527.01843
-0.0336271087211 9530.76172
-0.0341814248168 9534.50195
-0.0211587611771 9538.24341
-0.0294633556644 9541.98486
-0.00397070982965 9545.72449
-0.0307523280733 9549.4635
-0.0107904762381 9553.20251
-0.0301032259819 9556.94092
-0.0149300967216 9560.67871
-0.023055066735 9564.41589
-0.0409865689882 9568.15125
-0.042836922462 9571.88721
-0.025102412387 9575.62256
-0.0233914423041 9579.3573
-0.0113631171692 9583.09021
-0.0300893039562 9586.82373
-0.0362651919755 9590.55664
-0.0164232903468 9594.28955
-0.0156033681536 9598.02063
-0.02488493231 9601.7511
-0.0128291397993 9605.48157
-0.0117127053629 9609.21143
-0.0164933918469 9612.94128
-0.0187371051982 9616.66809
-0.0176019073841 9620.39612
-0.01337840779 9624.12415
-0.0184169350705 9627.85095
-0.019249644807 9631.57715
-0.0108400899395 9635.30151
-0.0133703942018 9639.02649
-0.0209694634068 9642.75146
-0.0224150613043 9646.47522
-0.0075218424762 9650.19714
-0.0361078919677 9653.92029
-0.0248634621599 9657.6416
-0.0351770978112 9661.36292
-0.028992916257 9665.08423
-0.0176239768897 9668.80371
-0.0122158169697 9672.52319
-0.0148111790526 9676.24207
-0.0208476913115 9679.96094
-0.0176980330539 9683.67737
-0.0300420012952 9687.39441
-0.0285995751229 9691.11084
-0.017113213137 9694.82666
-0.0179643572833 9698.54248
-0.0311368519505 9702.25586
-0.0273977476485 9705.96985
-0.0104979322361 9709.68323
-0.0216632278867 9713.39661
-0.0302694989702 9717.10754
-0.0142428594165 9720.81909
-0.0220279964265 9724.53064
0.000955489635965 9728.24097
-0.0152296853026 9731.94946
-0.0289519898813 9735.65918
-0.0355294088444 9739.36768
-0.021928274965 9743.07556
-0.011722125409 9746.78284
-0.0323218536273 9750.48828
-0.033133398598 9754.19495
-0.0188835690837 9757.90039
-0.0144565059138 9761.60522
-0.0124115476836 9765.30884
-0.0364406000741 9769.01245
-0.025840128995 9772.71606
-0.00704108755511 9776.41846
-0.0180036649236 9780.12024
-0.0137015183788 9783.82019
-0.00588720401301 9787.52136
-0.00148198244308 9791.22131
0.00359849748267 9794.92065
-0.0181042540386 9798.61877
-0.0201083836918 9802.31689
-0.021488258822 9806.0144
-0.0410269036922 9809.71191
-0.0187701469499 9813.4082
-0.00807458861894 9817.10266
-0.0117433728348 9820.79773
-0.023746963517 9824.4928
-0.0129010166797 9828.18604
-0.0281172400952 9831.87866
-0.0188480862451 9835.57129
-0.0415173652842 9839.26331
-0.0332388843169 9842.95471
-0.0501305854538 9846.64612
-0.0438669087999 9850.33569
-0.0188646056497 9854.02527
-0.0228873786595 9857.71362
0.00509837763065 9861.40259
-0.00741357615216 9865.08911
-0.00710232072286 9868.77625
-0.0329621965485 9872.46277
-0.0343123686273 9876.14929
-0.0419915927661 9879.83459
-0.0263467681926 9883.51807
-0.018706806684 9887.20215
-0.0158665888633 9890.88623
-0.0337673733915 9894.56909
-0.037669199596 9898.25012
-0.0499288230295 9901.93115
-0.0189906324275 9905.61279
-0.0296418804533 9909.29321
-0.029500552784 9912.97302
-0.0064132352446 9916.651
-0.0208693925606 9920.3302
-0.0433668470312 9924.00818
-0.0194340165021 9927.68494
-0.0186894794447 9931.36047
-0.0196150992725 9935.03723
-0.0108393693134 9938.71277
-0.0461027434827 9942.3877
-0.0604059662687 9946.0614
-0.0401390496376 9949.7345
-0.0347520235214 9953.40759
-0.0505416237302 9957.08008
-0.0203267286234 9960.75195
-0.0296374924188 9964.422
-0.0372902734383 9968.09265
-0.0414838162919 9971.7627
-0.0421613926028 9975.43152
-0.0365783313249 9979.10095
-0.0345421544159 9982.76733
-0.0923742613905 9986.43494
-0.0518815690072 9990.10193
-0.0370809224605 9993.76831
-0.0322731421944 9997.43286
-0.0161958073606 10001.09802
-0.0526454246007 10004.76257
-0.0431615385149 10008.42651
-0.0335115720684 10012.08923
-0.073787465437 10015.75134
-0.052988932043 10019.41284
-0.0371937802808 10023.07434
-0.0144600291294 10026.73523
-0.0314923299995 10030.39429
-0.0122381796029 10034.05334
-0.027551152164 10037.71179
-0.0246847138478 10041.37024
-0.0297462388063 10045.02808
-0.0170789057756 10048.68408
-0.0476637188083 10052.34009
-0.026648694966 10055.99609
-0.0659498892983 10059.65149
-0.0646654161262 10063.30444
-0.0505232351225 10066.95862
-0.0569606154348 10070.61218
-0.0533384674261 10074.26453
-0.0548039907033 10077.91626
-0.0820309994083 10081.56677
-0.0308797653087 10085.21729
-0.0596112548934 10088.8678
-0.0473106247608 10092.51709
-0.0620830178306 10096.16577
-0.0652514800433 10099.81384
-0.0405584849064 10103.4613
-0.0257039068343 10107.10754
-0.0198184934374 10110.75439
-0.0455052974496 10114.39941
-0.0384370660171 10118.04443
-0.0226511082322 10121.68884
-0.0289181076177 10125.33325
-0.0239232571359 10128.97522
-0.020136774926 10132.6178
-0.0574080166818 10136.26038
-0.0205652088606 10139.90112
0.0156076284174 10143.54187
0.0150464355308 10147.1814
-0.0446648092984 10150.82153
-0.0522839585869 10154.46045
-0.0607992389539 10158.09937
-0.0518928699227 10161.73523
-0.0257421736841 10165.3717
-0.023036311531 10169.00879
-0.0362264641274 10172.64404
-0.0543387993706 10176.27991
-0.0378517029917 10179.91333
-0.0547787168449 10183.54675
-0.057724046894 10187.18018
-0.0510529072171 10190.81299
-0.00944426978121 10194.44397
-0.0657629145931 10198.07495
-0.0719910592035 10201.70593
-0.124594843412 10205.33691
-0.0554797252939 10208.96606
-0.0658949106732 10212.5946
-0.0764615559264 10216.22253
-0.0201064560555 10219.85046
-0.0639220314819 10223.47778
-0.116320384088 10227.10327
-0.0930289763329 10230.72876
-0.0843372181629 10234.35364
-0.0924724717387 10237.97852
-0.106292525309 10241.60278
-0.0674183858974 10245.22461
-0.0970906641779 10248.84766
-0.0805344863326 10252.46948
-0.114944893726 10256.09131
-0.0189754713063 10259.71069
-0.060194430876 10263.3313
-0.0904969865773 10266.94946
-0.00865809524048 10270.56885
-0.1418004584 10274.18823
-0.0892201703199 10277.80396
-0.100344927905 10281.4209
-0.047358991683 10285.03784
-0.149385387415 10288.65479
-0.0715235341341 10292.26807
-0.13737038354 10295.88135
-0.0902287508031 10299.49707
-0.0977226720803 10303.10913
-0.0723425468865 10306.72241
-0.140009577736 10310.33325
-0.0672237835979 10313.94531
-0.041788892429 10317.55493
-0.0964515222784 10321.16577
-0.0893936448679 10324.77417
-0.101018731777 10328.38257
-0.130766102981 10331.99097
-0.15390437763 10335.59937
-0.0812266339702 10339.20654
-0.112902661828 10342.81128
-0.114143211857 10346.41724
-0.060022769026 10350.02197
-0.0403445262584 10353.62671
-0.102721331299 10357.229
-0.175842143651 10360.83252
-0.148987897537 10364.43481
-0.0464297896029 10368.03711
-0.098540446626 10371.6394
-0.118935804169 10375.23804
-0.206306171881 10378.83789
-0.171865796079 10382.43774
-0.152069938574 10386.03638
-0.106117681422 10389.63257
-0.169396372483 10393.2312
-0.164041966687 10396.82861
