0.0 1883.01102
0.0 1887.64923
-1825.83696 1892.28699
-1838.261112 1896.92459
-1825.770492 1901.56158
-1862.23185 1906.19812
-1772.922058 1910.83435
-1833.867765 1915.47043
-1782.071481 1920.1059
-1829.979507 1924.74091
-1775.425766 1929.37561
-1884.688475 1934.01001
-1798.766369 1938.6441
-1843.534542 1943.27759
-1900.590657 1947.91077
-1847.337544 1952.54349
-1813.46035 1957.17575
-1834.863519 1961.80786
-1816.320176 1966.43951
-1846.402562 1971.07071
-1854.306762 1975.70145
-1826.441079 1980.33203
-1874.695659 1984.96216
-1939.026459 1989.59167
-1883.74001 1994.22089
-1871.132989 1998.84979
-1831.209511 2003.47855
-1929.600647 2008.10654
-1884.535531 2012.73422
-1877.265079 2017.3616
-1857.542931 2021.98853
-1866.063599 2026.61514
-1821.327879 2031.2413
-1822.686732 2035.867
-1928.191724 2040.4924
-1775.338449 2045.11734
-1792.517221 2049.74197
-1852.428055 2054.36615
-1780.044018 2058.99002
-1808.277591 2063.61343
-1887.693004 2068.23654
-1879.748028 2072.85919
-1858.681782 2077.48123
-1798.635586 2082.10327
-1853.094132 2086.72485
-1860.944019 2091.34583
-1889.008712 2095.96649
-1835.484215 2100.5867
-1856.215812 2105.20676
-1833.479481 2109.82635
-1808.854218 2114.44534
-1805.207811 2119.06403
-1879.65284 2123.6824
-1830.314048 2128.30048
-1830.314048 2132.91779
-1828.29029 2137.53494
-1704.688553 2142.15179
-1847.168296 2146.76819
-1832.006913 2151.38412
-1785.703978 2155.9996
-1852.060955 2160.61493
-1823.421021 2165.22949
-1905.210595 2169.84406
-1842.749882 2174.45801
-1872.423096 2179.07166
-1918.267978 2183.68484
-1827.8121 2188.29773
-1840.48732 2192.91031
-1861.038372 2197.52228
-1834.861065 2202.13379
-1795.17811 2206.745
-1881.217911 2211.35574
-1862.508676 2215.96634
-1841.852304 2220.57648
-1844.773644 2225.186
-1812.617359 2229.79553
-1838.59489 2234.4043
-1794.846971 2239.01276
-1830.464283 2243.62076
-1819.687408 2248.22845
-1847.017907 2252.83569
-1861.955452 2257.44278
-1832.2455 2262.0491
-1871.505537 2266.65512
-1783.301972 2271.26114
-1856.014358 2275.86639
-1850.494633 2280.47119
-1874.410084 2285.07568
-1853.054162 2289.67972
-1804.752515 2294.28345
-1871.228206 2298.88687
-1868.173774 2303.48984
-1905.713265 2308.09219
-1842.290489 2312.6944
-1808.774555 2317.29614
-1801.873276 2321.89758
-1854.28566 2326.49841
-1886.900837 2331.09894
-1825.148723 2335.69901
-1812.359336 2340.29892
-1889.811146 2344.89822
-1799.666744 2349.49707
-1797.844619 2354.09561
-1827.778933 2358.69385
-1850.551573 2363.29163
-1846.005985 2367.88895
-1848.287995 2372.48581
-1908.169719 2377.08237
-1860.651374 2381.67847
-1944.206661 2386.27441
-1851.160229 2390.8696
-1796.03379 2395.46463
-1889.779436 2400.0592
-1871.926396 2404.65332
-1921.009292 2409.24698
-1876.53055 2413.84033
-1877.426884 2418.43338
-1805.270237 2423.02597
-1869.622302 2427.6181
-1854.983536 2432.20993
-1858.297457 2436.80115
-1866.940918 2441.39221
-1899.927454 2445.98282
-1853.094132 2450.57297
-1886.480789 2455.16266
-1856.712646 2459.75189
-1829.247955 2464.34082
-1797.461845 2468.92944
-1843.26493 2473.51761
-1817.290452 2478.10516
-1795.217461 2482.69272
-1875.716721 2487.27951
-1819.516636 2491.866
-1861.885182 2496.45218
-1776.310212 2501.0379
-1906.720626 2505.62317
-1777.520883 2510.20813
-1840.266434 2514.79279
-1901.121418 2519.37668
-1846.360964 2523.96057
-1888.409782 2528.54385
-1863.703148 2533.12683
-1806.325302 2537.7092
-1841.316166 2542.29126
-1897.350288 2546.87302
-1784.654079 2551.45432
-1762.76419 2556.035
-1840.621004 2560.61584
-1847.992699 2565.19592
-1837.968129 2569.7757
-1869.939629 2574.35455
-1864.146523 2578.93372
-1844.792556 2583.51196
-1756.471077 2588.0899
-1885.35672 2592.66754
-1903.126671 2597.24487
-1915.084144 2601.8219
-1876.510466 2606.39832
-1859.310367 2610.97443
-1855.537049 2615.54993
-1829.440651 2620.12512
-1886.521407 2624.69971
-1937.36613 2629.27429
-1864.79229 2633.84827
-1922.571445 2638.42194
-1804.375328 2642.9953
-1825.347797 2647.56805
-1920.584999 2652.1405
-1910.872089 2656.71234
-1802.904316 2661.28387
-1835.998821 2665.8551
-1823.639386 2670.42572
-1843.599918 2674.99573
-1800.3064 2679.56604
-1865.889053 2684.13574
-1826.045906 2688.70483
-1843.560551 2693.27362
-1769.403703 2697.8418
-1908.351112 2702.40936
-1857.37967 2706.97693
-1902.266633 2711.54419
-1879.12048 2716.11053
-1783.043244 2720.67688
-1858.736351 2725.24292
-1849.340097 2729.80835
-1822.66617 2734.37347
-1890.731266 2738.93799
-1852.280048 2743.5025
-1913.712311 2748.0661
-1859.548661 2752.62939
-1784.01577 2757.19238
-1811.550251 2761.75507
-1910.930631 2766.31714
-1818.694522 2770.87891
-1823.820102 2775.44067
-1837.764282 2780.00122
-1869.389027 2784.56177
-1835.595869 2789.12201
-1883.185306 2793.68164
-1815.33934 2798.24097
-1912.957217 2802.79968
-1837.820675 2807.3584
-1926.440918 2811.9162
-1870.178711 2816.474
-1847.33383 2821.03149
-1884.794106 2825.58838
-1819.687408 2830.14465
-1910.136486 2834.70062
-1824.354623 2839.25629
-1860.503006 2843.81134
-1826.400129 2848.36639
-1768.822217 2852.92053
-1785.723717 2857.47467
-1918.250736 2862.0282
-1871.085945 2866.58142
-1885.049034 2871.13434
-1849.836589 2875.68634
-1785.351399 2880.23804
-1762.068758 2884.78973
-1855.480209 2889.34113
-1850.313105 2893.8913
-1840.966549 2898.44208
-1874.906807 2902.99164
-1890.839062 2907.54089
-1897.368432 2912.08984
-1889.88123 2916.63879
-1831.345747 2921.18683
-1825.32877 2925.73456
-1818.099247 2930.28198
-1895.070755 2934.82849
-1807.746978 2939.37561
-1806.327962 2943.92151
-1846.102742 2948.46741
-1801.236129 2953.01239
-1866.720619 2957.55737
-1812.579841 2962.10175
-1816.988282 2966.64581
-1840.469635 2971.18958
-1852.960056 2975.73242
-1894.149254 2980.27557
-1864.181858 2984.81812
-1856.676998 2989.35974
-1894.903599 2993.90137
-1883.405693 2998.44238
-1883.369648 3002.9834
-1918.046238 3007.5235
-1878.219003 3012.0636
-1890.691899 3016.60278
-1916.181527 3021.14197
-1906.842414 3025.68054
-1868.909821 3030.21881
-1885.650078 3034.75677
-1886.262818 3039.29413
-1857.904162 3043.83118
-1848.986084 3048.36761
-1803.460163 3052.90375
-1751.800379 3057.43958
-1754.819145 3061.9751
-1862.270081 3066.5097
-1808.187021 3071.04431
-1836.550572 3075.578
-1823.457428 3080.11169
-1828.014877 3084.64508
-1888.06361 3089.17755
-1822.035752 3093.71063
-1837.900613 3098.24219
-1788.187191 3102.77374
-1897.682921 3107.30499
-1917.445595 3111.83563
-1862.177055 3116.36597
-1836.62871 3120.89569
-1825.343262 3125.42511
-1822.149712 3129.95422
-1781.425629 3134.48273
-1813.591755 3139.01093
-1862.489315 3143.53882
-1829.637371 3148.0658
-1845.864502 3152.59308
-1853.789229 3157.11975
-1807.86168 3161.64581
-1797.720102 3166.17126
-1850.697895 3170.69672
-1819.966568 3175.22156
-1900.827469 3179.74579
-1771.325144 3184.27002
-1841.376002 3188.79333
-1867.713768 3193.31665
-1837.324366 3197.83936
-1831.365328 3202.36176
-1806.123207 3206.88354
-1777.6637 3211.40503
-1860.760875 3215.92651
-1783.022705 3220.44647
-1856.788185 3224.96704
-1838.159172 3229.48639
-1809.360619 3234.00604
-1860.085724 3238.52509
-1885.945332 3243.04352
-1772.257653 3247.56165
-1823.858179 3252.07916
-1859.987587 3256.59668
-1843.743294 3261.11328
-1868.566696 3265.62988
-1797.422494 3270.14557
-1805.766603 3274.66156
-1821.79652 3279.17664
-1797.223615 3283.6911
-1857.523192 3288.20557
-1813.591755 3292.71942
-1807.928665 3297.23297
-1776.726954 3301.74561
-1819.865976 3306.25854
-1905.667246 3310.77026
-1857.981919 3315.28229
-1774.562509 3319.7937
-1842.607065 3324.3045
-1815.953564 3328.815
-1828.843393 3333.32489
-1904.912781 3337.83478
-1861.371437 3342.34406
-1868.267939 3346.85303
-1878.606208 3351.36078
-1963.926529 3355.86914
-1810.539353 3360.37659
-1884.859947 3364.88342
-1824.077919 3369.39026
-1856.45525 3373.89648
-1890.473312 3378.4024
-1783.479198 3382.90771
-1898.477562 3387.41272
-1934.768058 3391.91681
-1829.637371 3396.4212
-1779.654955 3400.92468
-1894.130814 3405.42816
-1874.742897 3409.93103
-1866.169922 3414.43329
-1843.384193 3418.93555
-1835.07971 3423.43689
-1821.477052 3427.93793
-1881.418861 3432.43866
-1845.109652 3436.93878
-1836.8246 3441.4389
-1804.256119 3445.93842
-1895.088093 3450.43732
-1839.690574 3454.93591
-1871.342613 3459.43359
-1782.42849 3463.93158
-1851.469883 3468.42896
-1825.825401 3472.92542
-1811.258628 3477.42218
-1839.033902 3481.91803
-1950.872231 3486.41357
-1800.346607 3490.90881
-1888.543876 3495.40314
-1888.667469 3499.89777
-1912.237816 3504.39148
-1813.907024 3508.88489
-1872.423096 3513.37799
-1844.057398 3517.87048
-1830.610546 3522.36267
-1872.353161 3526.85425
-1888.817311 3531.34552
-1881.400513 3535.83649
-1845.34782 3540.32684
-1817.422712 3544.81659
-1776.249628 3549.30634
-1816.131729 3553.79517
-1807.23469 3558.2843
-1882.985323 3562.77222
-1803.201872 3567.26013
-1809.934635 3571.74774
-1911.349643 3576.23444
-1911.209274 3580.72113
-1796.887851 3585.20721
-1900.662472 3589.69299
-1814.031727 3594.17786
-1828.128033 3598.66302
-1927.964805 3603.14697
-1890.176124 3607.63123
-1836.907624 3612.11456
-1881.16143 3616.5976
-1790.854749 3621.08032
-1823.742804 3625.56244
-1878.659428 3630.04456
-1908.297116 3634.52576
-1897.941124 3639.00696
-1772.793969 3643.48663
-1803.802545 3647.96722
-1782.204406 3652.4469
-1762.360714 3656.92596
-1836.115742 3661.40472
-1794.761606 3665.88287
-1831.546318 3670.36102
-1820.225412 3674.83826
-1861.637706 3679.31549
-1856.093269 3683.79181
-1803.105736 3688.26843
-1883.978388 3692.74384
-1835.119272 3697.21924
-1836.866886 3701.69403
-1889.642044 3706.16821
-1884.178428 3710.6427
-1811.586601 3715.11566
-1818.177523 3719.58923
-1827.740189 3724.06158
-1832.338749 3728.53424
-1837.951053 3733.00568
-1819.254035 3737.47711
-1769.516596 3741.94794
-1818.099247 3746.41846
-1785.465391 3750.88898
-1859.072191 3755.35828
-1907.653609 3759.82758
-1860.561777 3764.29596
-1908.502648 3768.76465
-1813.830864 3773.23242
-1836.531898 3777.69989
-1852.481347 3782.16675
-1818.745643 3786.6333
-1848.899132 3791.09985
-1835.853975 3795.56519
-1865.133532 3800.03052
-1820.85915 3804.49524
-1938.159904 3808.95996
-1880.72148 3813.42377
-1868.652729 3817.88727
-1881.639839 3822.35046
-1876.194404 3826.81274
-1867.335685 3831.27533
-1895.161503 3835.73669
-1873.075897 3840.19836
-1835.119272 3844.65912
-1840.726948 3849.11957
-1847.056197 3853.57971
-1833.113066 3858.03925
-1859.233268 3862.49847
-1814.443873 3866.95679
-1864.972741 3871.41541
-1805.074662 3875.87311
-1809.758884 3880.33051
-1804.652111 3884.78729
-1851.286874 3889.24408
-1816.59042 3893.69995
-1884.417649 3898.15552
-1813.947415 3902.61078
-1802.766822 3907.06543
-1824.335655 3911.52008
-1853.933482 3915.97351
-1808.66374 3920.42725
-1807.097832 3924.87976
-1847.136589 3929.33289
-1774.129719 3933.78479
-1790.45072 3938.23639
-1899.958847 3942.68768
-1786.818906 3947.13837
-1793.01365 3951.58905
-1836.808353 3956.03851
-1852.815899 3960.48798
-1834.287513 3964.93683
-1847.007879 3969.38568
-1788.937439 3973.83392
-1881.40038 3978.28156
-1845.586349 3982.72888
-1875.755766 3987.1756
-1899.967121 3991.62201
-1798.991866 3996.06781
-1824.155744 4000.51361
-1867.940171 4004.95819
-1838.397046 4009.40308
-1823.742804 4013.84705
-1809.521231 4018.29102
-1728.363331 4022.73438
-1779.654955 4027.17682
-1766.702675 4031.61926
-1514.005615 4036.0611
-675.990845 4040.50293
534.673706 4044.94385
1006.197632 4049.38446
598.901367 4053.82477
-484.807374 4058.26447
-1059.283813 4062.70386
-1474.49701 4067.14233
-1570.072327 4071.58081
-1455.533081 4076.01868
-1340.516083 4080.45624
-1459.083313 4084.89319
-1524.66275 4089.33014
-1626.968109 4093.76617
-1574.852981 4098.2019
-1621.821167 4102.63702
-1714.398849 4107.07184
-1660.864014 4111.50635
-1670.051536 4115.94025
-1670.369903 4120.37384
-1665.488159 4124.80682
-1562.955277 4129.23981
-1544.274276 4133.67126
-1571.129684 4138.10333
-1606.927292 4142.53479
-1542.802704 4146.96533
-1471.505279 4151.39587
-1462.789032 4155.82581
-1562.933228 4160.25543
-1498.025879 4164.68414
-1478.550934 4169.11285
-1453.782593 4173.54065
-1475.319397 4177.96875
-1381.91455 4182.39594
-1427.465485 4186.82281
-1393.174102 4191.24908
-1420.646423 4195.67505
-1349.538788 4200.10071
-1258.031219 4204.52545
-1334.504394 4208.9502
-1270.374939 4213.37372
-1209.498169 4217.79785
-1181.794677 4222.22107
-1222.193299 4226.64368
-1192.712403 4231.06628
-1126.775879 4235.48798
-1146.133484 4239.90967
-1079.03479 4244.33044
-1089.742188 4248.75092
-1099.173645 4253.17078
-928.28241 4257.59064
-1090.802185 4262.00989
-949.17865 4266.42853
-1035.570923 4270.84686
-925.989136 4275.26459
-862.696167 4279.68201
-799.512207 4284.09912
-898.17627 4288.51563
-857.26416 4292.93121
-834.615723 4297.34711
-775.880493 4301.76239
-751.240356 4306.17706
-743.539306 4310.59113
-806.522705 4315.00488
-641.936523 4319.41833
-574.220459 4323.83087
-618.871826 4328.24341
-539.483033 4332.65533
-538.495117 4337.06726
-270.665039 4341.47827
246.088135 4345.88867
2320.877197 4350.29877
8097.742431 4354.70825
12097.677246 4359.11804
12166.663818 4363.52661
7847.647706 4367.93518
4631.888428 4372.34283
2511.535034 4376.75049
1091.798462 4381.15723
322.184204 4385.56396
-68.916382 4389.9704
-102.813233 4394.37561
-263.280518 4398.78113
-205.176147 4403.18573
-200.147339 4407.59033
-201.945557 4411.99341
-127.066651 4416.39709
-237.636597 4420.79956
-172.389283 4425.20264
-111.762818 4429.6051
-165.332642 4434.00604
-204.521606 4438.40759
-118.235596 4442.80762
-133.511108 4447.20825
-108.730713 4451.60767
-48.882813 4456.00739
-25.884888 4460.40558
-121.799927 4464.80438
-29.910767 4469.20258
-33.706176 4473.59955
-25.732178 4477.99713
-49.875977 4482.39319
-36.26062 4486.78955
1.272583 4491.185
9.889527 4495.58014
-13.506836 4499.97498
-17.487793 4504.36951
-6.459839 4508.76343
47.67566 4513.15674
-3.766236 4517.54974
42.98291 4521.94183
-38.052978 4526.33392
-42.541626 4530.7251
-39.161132 4535.11688
33.489013 4539.50684
-57.493042 4543.8974
-19.476685 4548.28735
-15.541748 4552.67639
-24.418213 4557.06543
-35.293335 4561.45325
-106.913696 4565.84137
-132.201782 4570.22858
-120.268188 4574.61578
-56.942993 4579.00208
7.565918 4583.38867
-98.926147 4587.77405
-94.746338 4592.15912
-116.564331 4596.54388
-193.664307 4600.92773
-117.670166 4605.31189
-47.032959 4609.69513
-68.164307 4614.07806
-124.664429 4618.46008
-113.631225 4622.84241
-177.974976 4627.22351
-158.637085 4631.60461
-95.618287 4635.98541
-39.834594 4640.3653
-73.129761 4644.74518
-152.650146 4649.12384
-74.673584 4653.50281
-148.264892 4657.88086
-160.489624 4662.25891
-212.77185 4666.63605
-167.660278 4671.01318
-130.746705 4675.39001
-70.975586 4679.76563
-90.335206 4684.14124
-164.686768 4688.51593
-96.584351 4692.89063
-22.659546 4697.2644
-66.045288 4701.63849
-123.563477 4706.01135
-156.13147 4710.38422
-117.577759 4714.75677
-93.902832 4719.12811
-98.483154 4723.50006
-36.235595 4727.87048
-106.183837 4732.24121
14.739136 4736.61072
-55.356933 4740.98053
-114.060425 4745.34943
-139.728027 4749.71802
-129.918335 4754.0863
-63.634766 4758.45367
-69.476441 4762.82104
-132.900268 4767.1875
-26.003052 4771.55426
-42.473999 4775.91949
-19.063599 4780.28503
-19.099487 4784.64966
-8.53479 4789.01428
-46.21167 4793.3786
55.528443 4797.7417
42.233399 4802.1051
99.184448 4806.46698
258.113769 4810.82947
251.69812 4815.19073
371.977295 4819.552
493.814087 4823.91266
639.745727 4828.27301
786.487549 4832.63306
1129.046143 4836.99188
1382.174804 4841.35101
1705.666992 4845.70923
2020.725586 4850.06744
2318.435547 4854.42413
2836.129517 4858.78174
3234.903808 4863.13782
3532.441162 4867.4939
3711.772094 4871.84998
3788.293945 4876.20453
3702.077393 4880.55939
3444.492798 4884.91333
3392.008545 4889.26727
3147.847656 4893.6203
2866.735107 4897.97302
2695.59375 4902.32513
2524.947266 4906.67755
2531.166504 4911.02905
2487.064331 4915.37964
2350.346069 4919.73022
2196.761963 4924.0799
2081.336304 4928.42957
1915.344849 4932.77832
1823.60022 4937.12738
1671.491333 4941.47491
1510.729858 4945.82275
1372.380005 4950.17029
1303.473877 4954.5166
1277.070313 4958.86292
1178.199585 4963.20831
1070.546875 4967.55402
973.928345 4971.8985
905.464112 4976.24298
863.396484 4980.58655
756.888184 4984.93042
621.905151 4989.27368
527.522095 4993.61572
481.416382 4997.95807
426.162842 5002.29919
364.120972 5006.64063
291.736328 5010.98083
303.689331 5015.32104
235.923218 5019.66064
172.277465 5023.99994
181.002075 5028.33893
126.887207 5032.677
170.448852 5037.01477
75.444335 5041.35193
57.460938 5045.68909
72.120361 5050.02502
117.433471 5054.36127
98.453613 5058.69629
114.647338 5063.03162
211.450928 5067.36603
146.967774 5071.69983
166.878051 5076.03363
123.003052 5080.36621
222.156494 5084.6994
210.847046 5089.03107
209.656006 5093.36304
175.085815 5097.69379
342.338257 5102.02484
247.841431 5106.35529
331.48938 5110.68481
367.071167 5115.01434
330.235596 5119.34265
277.789063 5123.67126
267.874511 5127.99927
274.855224 5132.32605
283.312134 5136.65344
320.473267 5140.97961
325.71936 5145.30579
258.979736 5149.63135
292.054199 5153.95691
331.598267 5158.28064
224.793946 5162.60498
267.392578 5166.92871
280.28247 5171.25183
196.821655 5175.57373
239.677246 5179.89624
149.855103 5184.21753
158.720947 5188.53943
160.602783 5192.86072
155.956543 5197.18018
41.69104 5201.50024
120.927124 5205.81909
100.230102 5210.13855
-44.014404 5214.45679
-11.722046 5218.77502
-183.985473 5223.09204
-45.509399 5227.40906
-205.262695 5231.72546
-130.636231 5236.04187
-216.329467 5240.35767
-251.6875 5244.67224
-267.328125 5248.98682
-326.107056 5253.30078
-272.729736 5257.61475
-326.092407 5261.92749
-349.070556 5266.24023
-291.756592 5270.55237
-457.629028 5274.86389
-410.126831 5279.17542
-449.317139 5283.48572
-463.822022 5287.79663
-435.61792 5292.10571
-488.633057 5296.41541
-493.251587 5300.72388
-532.13916 5305.03235
-605.126098 5309.34082
-520.998779 5313.64746
-483.035156 5317.95532
-516.344604 5322.26135
-487.872925 5326.56738
-337.430664 5330.8728
-284.190918 5335.17822
-271.155029 5339.48242
-300.811645 5343.78662
-348.871582 5348.09082
-319.676147 5352.39319
-233.650269 5356.69617
-112.605103 5360.99792
62.030762 5365.29968
316.732178 5369.60083
688.162232 5373.90137
1128.370849 5378.2019
1572.302978 5382.50183
1864.722412 5386.80115
2531.452759 5391.09985
3380.239502 5395.39795
4692.140625 5399.69543
6498.087402 5403.99292
9286.745361 5408.28979
12869.174317 5412.58606
16498.75354 5416.88171
18240.684448 5421.17737
18065.217774 5425.47302
17243.056762 5429.76685
16386.070434 5434.06128
16034.646484 5438.35388
15670.612427 5442.64771
15414.367798 5446.9397
16649.79065 5451.2323
25529.919312 5455.52307
33949.242554 5459.81506
37268.714355 5464.10583
30564.414551 5468.39539
23020.050415 5472.68555
19366.496094 5476.97449
16643.232422 5481.26282
14106.42041 5485.55054
11521.081787 5489.83887
9594.911499 5494.12598
7846.118164 5498.41309
6591.581055 5502.69958
5682.223877 5506.98486
4749.713257 5511.27075
4089.027099 5515.55481
3327.194092 5519.83948
2686.676392 5524.12292
2136.013061 5528.40698
1742.831299 5532.6886
1344.525635 5536.97205
910.322022 5541.25366
632.335083 5545.53467
383.241943 5549.81628
93.94751 5554.09607
-196.591675 5558.37646
-339.334839 5562.65564
-498.206788 5566.93481
-494.743775 5571.21338
-703.117188 5575.49133
-768.539673 5579.76929
-758.023743 5584.04602
-850.589233 5588.32275
-956.674194 5592.59888
-1055.330566 5596.87439
-1129.171448 5601.14929
-1132.808289 5605.42419
-1144.167053 5609.69788
-1182.608765 5613.97156
-1231.809449 5618.24524
-1213.938782 5622.5177
-1274.552918 5626.79016
-1174.849427 5631.0614
-1280.916748 5635.33264
-1337.169464 5639.60327
-1349.398803 5643.87329
-1326.440033 5648.14331
-1378.995057 5652.41272
-1415.972138 5656.68213
-1330.397064 5660.94971
-1510.234589 5665.2179
-1420.189148 5669.48425
-1485.95105 5673.75183
-1466.659851 5678.01819
-1413.628052 5682.28394
-1487.882751 5686.54846
-1489.139648 5690.81421
-1503.681213 5695.07874
-1580.629334 5699.34265
-1503.827056 5703.60596
-1557.298248 5707.86865
-1597.285522 5712.13074
-1588.14328 5716.39282
-1555.77472 5720.6543
-1495.7379 5724.91516
-1563.909439 5729.17603
-1588.438888 5733.43567
-1584.829636 5737.69531
-1584.295791 5741.95435
-1609.721466 5746.21277
-1558.03949 5750.47119
-1521.684693 5754.72839
-1308.928894 5758.9856
-127.375976 5763.24158
1642.327271 5767.49817
2628.656494 5771.75293
2146.263672 5776.0083
974.923461 5780.26306
1670.971436 5784.51721
2935.884888 5788.77136
3654.528442 5793.02429
2994.58667 5797.27661
1814.065796 5801.52832
1348.900512 5805.78064
1117.754638 5810.03113
907.317627 5814.28223
711.695678 5818.53271
738.170288 5822.78198
1002.373169 5827.03125
1186.488892 5831.2793
1498.338135 5835.52795
1439.491089 5839.77539
1581.349487 5844.02283
1519.613648 5848.26965
1274.102173 5852.51587
1271.871826 5856.76208
1169.011719 5861.00647
1304.627564 5865.25208
1872.733642 5869.49524
2083.862183 5873.73962
2021.684204 5877.98218
1551.934936 5882.22534
1090.510376 5886.46729
765.059448 5890.70984
539.166748 5894.95117
312.099365 5899.19128
186.475219 5903.43201
161.009399 5907.67151
122.688233 5911.91101
105.407226 5916.1499
310.739746 5920.38818
659.341309 5924.62524
918.542237 5928.86292
1037.936767 5933.10059
1029.305176 5937.33582
608.607544 5941.57227
274.140625 5945.8075
16.153076 5950.04272
-132.855225 5954.27673
-285.426148 5958.51074
-424.09668 5962.74353
-508.043946 5966.97632
-578.447266 5971.20911
-571.829346 5975.44067
-637.979614 5979.67224
-426.121094 5983.9032
-304.996826 5988.13354
-227.761108 5992.36328
-155.163208 5996.59241
-67.339478 6000.82153
-173.555054 6005.05005
-360.105835 6009.27795
-570.799317 6013.50525
-720.193481 6017.73254
-847.51709 6021.95862
-885.351929 6026.18408
-966.027222 6030.40955
-1101.002746 6034.6344
-1094.611023 6038.85925
-1102.982422 6043.0835
-1032.824341 6047.30652
-1027.655456 6051.52893
-989.21405 6055.75195
-1043.284363 6059.97375
-941.139649 6064.19495
-859.517211 6068.41553
-656.47522 6072.63672
-493.955322 6076.85608
-341.276489 6081.07605
29.545288 6085.2948
548.29834 6089.51294
1222.072632 6093.73108
2435.582641 6097.948
4701.386963 6102.16553
9424.776855 6106.38123
15110.307495 6110.59753
18968.141968 6114.81262
18515.328735 6119.02832
15909.512573 6123.24219
13119.288696 6127.45605
11373.885376 6131.66931
10011.281738 6135.88196
8824.219849 6140.0946
7596.40686 6144.30664
6639.272338 6148.51807
5588.897828 6152.72827
4392.673218 6156.93909
3425.498657 6161.14929
2600.531616 6165.35889
2007.026612 6169.56787
1444.605102 6173.77563
1065.366944 6177.9834
692.403442 6182.19055
554.708862 6186.39832
293.663086 6190.60364
330.126343 6194.81018
310.950683 6199.01611
203.055542 6203.22083
362.689209 6207.42493
384.099976 6211.62842
349.247437 6215.83191
227.077514 6220.03418
341.044922 6224.23706
351.560425 6228.43872
396.961914 6232.64038
446.031982 6236.84143
455.663208 6241.04126
442.197143 6245.2417
404.363647 6249.44031
521.68811 6253.64014
513.362793 6257.83752
481.31311 6262.03552
429.334472 6266.2323
251.531494 6270.42969
127.032348 6274.62585
181.665283 6278.82141
-90.00354 6283.01697
10.547363 6287.2113
-125.102295 6291.40625
-79.511352 6295.59998
106.662353 6299.79309
444.591919 6303.9856
749.412963 6308.1781
930.455933 6312.37
665.014771 6316.56067
162.627319 6320.75195
-174.309693 6324.94202
-438.574341 6329.13208
-696.873414 6333.32092
-926.885437 6337.50977
-1069.923035 6341.69739
-1143.149414 6345.88562
-1346.6474 6350.07263
-1289.108948 6354.25964
-1436.415161 6358.44543
-1443.741974 6362.63123
-1418.893921 6366.81641
-1429.887054 6371.00037
-1496.723999 6375.18494
-1539.414001 6379.36829
-1602.825012 6383.55164
-1570.66333 6387.73438
-1509.714203 6391.9165
-1555.001678 6396.09863
-1619.669296 6400.27893
-1646.981155 6404.45984
-1556.722381 6408.63953
-1583.914871 6412.81921
-1589.274963 6416.99829
-1645.916076 6421.17676
-1643.379105 6425.35461
-1604.377411 6429.53247
-1495.136536 6433.70972
-1567.517715 6437.88635
-1607.848022 6442.06177
-1604.267472 6446.23718
-1609.438492 6450.4126
-1619.296707 6454.58618
-1563.82959 6458.76099
-1612.216537 6462.93396
-1617.50029 6467.10693
-1492.811599 6471.27991
-1530.085739 6475.45166
-1589.585709 6479.62341
-1555.426285 6483.79333
-1524.127228 6487.96448
-1484.469361 6492.13379
-1458.515015 6496.3031
-1317.906189 6500.4718
-1159.990479 6504.63989
-1186.394653 6508.80859
-1172.93689 6512.97546
-1238.858948 6517.14233
-1312.288086 6521.30859
-1267.209289 6525.47485
-1268.602294 6529.63928
-1345.323974 6533.80432
-1393.226807 6537.96814
-1500.916076 6542.13196
-1515.447663 6546.29578
-1536.858123 6550.45837
-1505.083252 6554.62036
-1484.744049 6558.78174
-1566.421081 6562.94312
-1549.165772 6567.10327
-1548.239319 6571.26404
-1567.49057 6575.42358
-1498.576263 6579.58252
-1544.920349 6583.74084
-1613.165817 6587.89917
-1647.287796 6592.05688
-1593.350815 6596.21338
-1724.696579 6600.37048
-1619.680984 6604.52637
-1681.196655 6608.68164
-1616.095902 6612.83691
-1475.090698 6616.99158
-1470.353668 6621.14502
-1448.82248 6625.29846
-1507.869476 6629.45129
-1503.779328 6633.60413
-1536.404053 6637.75635
-1523.349029 6641.90674
-1633.287124 6646.05835
-1588.705582 6650.20813
-1598.444108 6654.35791
-1623.340347 6658.50769
-1582.057312 6662.65625
-1683.972336 6666.8042
-1633.607025 6670.95215
-1558.164963 6675.09949
-1642.515182 6679.24622
-1648.964615 6683.39233
-1657.466187 6687.53784
-1670.902283 6691.68335
-1645.519196 6695.82825
-1625.48294 6699.97192
-1583.867737 6704.1156
-1653.011902 6708.25867
-1662.11821 6712.40173
-1675.981217 6716.54358
-1688.720871 6720.68481
-1719.922524 6724.82605
-1696.843644 6728.96667
-1723.302375 6733.10669
-1716.284363 6737.24609
-1675.852173 6741.38489
-1667.10981 6745.52307
-1738.403129 6749.66064
-1693.748681 6753.79822
-1699.19806 6757.93579
-1746.596969 6762.07153
-1668.595894 6766.20789
-1713.596062 6770.34241
-1716.36531 6774.47754
-1696.698364 6778.61206
-1652.884872 6782.74597
-1762.696911 6786.87866
-1726.742729 6791.01135
-1732.718269 6795.14404
-1753.265777 6799.27551
-1708.855881 6803.40698
-1678.785736 6807.53723
-1822.899917 6811.66748
-1693.473312 6815.79712
-1710.141632 6819.92615
-1731.562882 6824.05457
-1795.270142 6828.18298
-1680.747933 6832.31018
-1634.315338 6836.43738
-1728.81102 6840.56335
-1783.888126 6844.68994
-1665.593231 6848.81531
-1709.166161 6852.93945
-1721.611855 6857.06482
-1596.212799 6861.18774
-1597.609955 6865.31128
-1677.929809 6869.43481
-1538.568894 6873.55713
-1534.896057 6877.67883
-1602.865296 6881.79932
-1532.715638 6885.92041
-1647.465057 6890.04089
-1660.171646 6894.16016
-1677.531647 6898.27881
-1699.910278 6902.39868
-1718.639267 6906.51611
-1719.600616 6910.63354
-1719.047096 6914.75098
-1782.511337 6918.86719
-1740.676155 6922.9834
-1746.212677 6927.099
-1748.573792 6931.2146
-1650.678284 6935.32837
-1585.362702 6939.44214
-1679.616211 6943.55652
-1718.376595 6947.66846
-1758.716408 6951.78101
-1705.347541 6955.89294
-1793.166599 6960.00366
-1805.600608 6964.11438
-1786.764122 6968.2251
-1765.489589 6972.33459
-1806.846395 6976.44409
-1765.455756 6980.55298
-1809.00361 6984.66064
-1807.86168 6988.76831
-1785.267359 6992.87537
-1877.844504 6996.98181
-1861.896735 7001.08826
-1848.804016 7005.19348
-1758.508838 7009.2981
-1848.088566 7013.40271
-1785.351129 7017.50732
-1733.311554 7021.61011
-1818.633372 7025.7135
-1791.797703 7029.81567
-1824.446102 7033.91724
-1743.15387 7038.0188
-1787.545883 7042.11914
-1752.683441 7046.21948
-1727.646454 7050.31921
-1614.309799 7054.41895
-1506.297393 7058.51746
-1475.336029 7062.61536
-1324.412811 7066.71265
-1193.663697 7070.81055
-1208.882385 7074.90662
-1230.01477 7079.0033
-1298.594482 7083.09814
-1105.873047 7087.19299
-1174.607849 7091.28784
-1145.01416 7095.38147
-1297.778808 7099.4751
-1410.125457 7103.5675
-1469.66803 7107.66052
-1455.214813 7111.75171
-1356.765137 7115.8429
-1321.915711 7119.93347
-1283.781189 7124.02405
-1241.295349 7128.11401
-1418.810547 7132.20276
-1482.361236 7136.2915
-1624.844589 7140.37964
-1633.098236 7144.46777
-1704.926437 7148.55408
-1718.084977 7152.64099
-1791.117157 7156.72668
-1807.508152 7160.81177
-1856.787302 7164.89746
-1798.342938 7168.98132
-1824.542053 7173.06519
-1851.286874 7177.14844
-1882.549721 7181.23108
-1887.732145 7185.31372
-1848.023189 7189.39514
-1761.634681 7193.47595
-1806.221344 7197.55676
-1737.600586 7201.63696
-1863.998444 7205.71716
-1823.122902 7209.79614
-1836.84704 7213.87451
-1834.921967 7217.95227
-1907.100204 7222.02942
-1813.907024 7226.10718
-1879.013103 7230.18311
-1794.204462 7234.25903
-1870.573042 7238.33374
-1869.903462 7242.40906
-1841.913793 7246.48376
-1806.221344 7250.55725
-1813.535289 7254.63013
-1825.706957 7258.703
-1818.714979 7262.77466
-1761.293974 7266.84631
-1866.739437 7270.91797
-1792.123299 7274.98779
-1812.159174 7279.05823
-1823.65926 7283.12805
-1831.922556 7287.19666
-1778.575339 7291.26526
-1850.849612 7295.33264
-1767.203939 7299.40063
-1834.306187 7303.4668
-1823.224949 7307.53357
-1788.869525 7311.59851
-1816.298042 7315.66406
-1827.573155 7319.729
-1823.18317 7323.79272
-1859.748585 7327.85645
-1804.67164 7331.91895
-1896.338822 7335.98206
-1845.1302 7340.04333
-1868.414307 7344.10522
-1837.782959 7348.16528
-1910.559159 7352.22656
-1876.987282 7356.28662
-1851.506676 7360.34546
-1961.517989 7364.4043
-1890.342282 7368.46252
-1851.286874 7372.52014
-1881.794844 7376.57715
-1802.149978 7380.63354
-1808.248632 7384.68933
-1837.028568 7388.74512
-1795.495857 7392.80029
-1860.154834 7396.85486
-1881.815451 7400.90881
-1854.107495 7404.96216
-1818.395671 7409.0155
-1786.647298 7413.06702
-1808.831469 7417.11914
-1820.463234 7421.17004
-1918.378845 7425.22095
-1861.554899 7429.27124
-1867.533049 7433.32031
-1808.313305 7437.37
-1829.419751 7441.41785
-1848.049199 7445.46631
-1813.276278 7449.51355
-1839.349835 7453.56079
-1866.798322 7457.6062
-1812.954376 7461.65283
-1794.244776 7465.69824
-1791.048898 7469.74243
-1829.678172 7473.78723
-1861.515385 7477.8302
-1794.643467 7481.87378
-1797.12706 7485.91614
-1875.000971 7489.9585
-1834.602656 7493.99963
-1833.551842 7498.04077
-1881.039746 7502.0813
-1894.942116 7506.12122
-1838.180381 7510.16052
-1880.781135 7514.19922
-1841.832482 7518.23792
-1829.419886 7522.27478
-1825.427284 7526.31226
-1841.463329 7530.34851
-1885.650078 7534.38477
-1861.33683 7538.42102
-1869.996109 7542.45544
-1824.260669 7546.48987
-1852.858566 7550.52368
-1831.989254 7554.5575
-1833.888243 7558.59009
-1849.797012 7562.62268
-1874.246347 7566.65405
-1858.793987 7570.68542
-1805.207811 7574.7168
-1868.725731 7578.74634
-1835.520287 7582.77588
-1883.166584 7586.8042
-1737.205676 7590.83374
-1855.995324 7594.86084
-1907.560772 7598.88916
-1813.729932 7602.91504
-1809.418376 7606.94214
-1864.237083 7610.96802
-1807.255592 7614.99268
-1788.504418 7619.01733
-1819.534477 7623.04199
-1837.164176 7627.06543
-1825.903645 7631.08826
-1724.561361 7635.11108
-1834.861065 7639.13208
-1817.879683 7643.15369
-1901.857079 7647.17529
-1913.39337 7651.19568
-1825.367287 7655.21545
-1890.950037 7659.23462
-1917.977082 7663.25317
-1933.020508 7667.27112
-1856.549724 7671.28845
-1893.433008 7675.30518
-1854.087069 7679.32251
-1870.512324 7683.33862
-1851.883863 7687.35413
-1778.792648 7691.36841
-1912.4004 7695.38269
-1852.757652 7699.39636
-1862.489586 7703.41003
-1818.456492 7707.42249
-1797.00599 7711.43433
-1866.500609 7715.44617
-1921.215233 7719.4574
-1809.696717 7723.46802
-1817.641157 7727.47803
-1822.129804 7731.48682
-1855.756553 7735.49622
-1838.118296 7739.50439
-1827.951071 7743.51196
-1827.196267 7747.51892
-1854.964974 7751.52588
-1806.976147 7755.53162
-1730.159317 7759.53735
-1855.719383 7763.54309
-1721.611217 7767.54639
-1786.756624 7771.5509
-1868.155964 7775.5542
-1841.934958 7779.5575
-1812.304428 7783.55896
-1836.550572 7787.56104
-1879.262321 7791.56189
-1840.266434 7795.56274
-1801.156647 7799.56299
-1784.23398 7803.56201
-1900.721947 7807.56165
-1835.677018 7811.56006
-1878.33239 7815.55786
-1741.631477 7819.55505
-1761.236122 7823.55225
-1793.153527 7827.54761
-1821.156706 7831.54358
-1835.337952 7835.53894
-1872.884228 7839.53369
-1828.188935 7843.52783
-1901.102909 7847.52075
-1890.085186 7851.51367
-1894.961689 7855.50598
-1844.633767 7859.49768
-1831.643587 7863.48877
-1856.951973 7867.47986
-1871.008862 7871.47034
-1917.257088 7875.45959
-1756.174615 7879.44885
-1799.054938 7883.4375
-1869.559456 7887.42493
-1850.715671 7891.41235
-1855.021027 7895.39917
-1900.901321 7899.38538
-1858.736351 7903.37158
-1868.764611 7907.35718
-1864.714951 7911.34094
-1848.526634 7915.32532
-1908.182861 7919.30847
-1869.719242 7923.29224
-1806.438991 7927.27417
-1880.114182 7931.2561
-1882.927575 7935.23682
-1815.89332 7939.21753
-1881.456562 7943.19824
-1791.545142 7947.17773
-1856.652579 7951.15723
-1829.140879 7955.1355
-1841.297123 7959.11377
-1788.703169 7963.09082
-1894.922626 7967.06787
-1830.037865 7971.0437
-1849.423083 7975.01953
-1824.612715 7978.99536
-1851.177147 7982.96936
-1835.227085 7986.94397
-1813.297928 7990.91736
-1834.802818 7994.89014
-1808.091072 7998.8623
-1860.800016 8002.83447
-1859.88967 8006.80542
-1841.278164 8010.77637
-1890.307995 8014.7467
-1853.971428 8018.71643
-1873.572304 8022.68555
-1869.480423 8026.65405
-1814.428298 8030.62256
-1785.008714 8034.58923
-1835.07971 8038.55652
-1826.182504 8042.52258
-1897.607674 8046.48804
-1811.862705 8050.4541
-1825.367287 8054.41833
-1848.605349 8058.38257
-1902.11475 8062.34619
-1868.725731 8066.30859
-1862.673538 8070.271
-1841.020802 8074.23279
-1897.12931 8078.19458
-1866.940918 8082.15515
-1860.710774 8086.11572
-1861.33683 8090.07507
-1850.016636 8094.03381
-1822.293369 8097.99194
-1851.604622 8101.95068
-1822.407846 8105.90759
-1787.121406 8109.8645
-1813.884982 8113.8208
-1817.40503 8117.77649
-1776.611456 8121.73157
-1871.525322 8125.68665
-1843.103557 8129.6405
-1756.69331 8133.59375
-1870.989256 8137.54639
-1869.797789 8141.49841
-1858.681782 8145.45105
-1821.375208 8149.40186
-1812.101651 8153.35266
-1788.00795 8157.30347
-1917.000149 8161.25244
-1867.553404 8165.20203
-1821.11707 8169.14978
-1792.620007 8173.09753
-1863.445679 8177.04468
-1834.684374 8180.99182
-1850.680336 8184.93774
-1830.174727 8188.88367
-1900.262581 8192.82898
-1836.054081 8196.77307
-1908.519569 8200.71716
-1931.328888 8204.66003
-1816.688258 8208.60291
-1927.299423 8212.54517
-1831.127007 8216.48743
-1880.149548 8220.42786
-1810.83242 8224.3689
-1893.652481 8228.30872
-1848.150438 8232.24792
-1819.35012 8236.18774
-1799.574803 8240.12512
-1862.862083 8244.06311
-1777.223263 8247.99988
-1796.925779 8251.93665
-1868.506285 8255.8728
-1848.347126 8259.80835
-1880.922199 8263.74329
-1823.721315 8267.67761
-1847.850647 8271.61194
-1831.405525 8275.54443
-1908.351112 8279.47754
-1850.933893 8283.40942
-1878.677936 8287.34131
-1858.956898 8291.27136
-1921.139254 8295.20264
-1847.056197 8299.13208
-1895.363289 8303.06152
-1839.493992 8306.99097
-1871.926396 8310.91797
-1820.620499 8314.84619
-1919.35276 8318.77319
-1794.782445 8322.7002
-1831.04979 8326.62537
-1829.45353 8330.55054
-1798.151404 8334.4751
-1885.448742 8338.39966
-1866.444221 8342.32361
-1886.385872 8346.24634
-1886.14663 8350.16907
-1857.466804 8354.09058
-1905.298843 8358.01208
-1769.422432 8361.93298
-1855.737656 8365.85327
-1823.246475 8369.77295
-1899.870365 8373.69202
-1931.348353 8377.61047
-1901.417007 8381.52832
-1817.960075 8385.44617
-1840.505497 8389.36218
-1870.932869 8393.27942
-1853.531124 8397.19421
-1723.050219 8401.11023
-1891.943159 8405.0238
-1878.238569 8408.9386
-1783.798379 8412.85217
-1852.101077 8416.76453
-1859.490684 8420.67749
-1813.430429 8424.58862
-1813.648935 8428.49976
-1872.280071 8432.41028
-1863.243995 8436.32019
-1841.793602 8440.22949
-1842.328755 8444.13879
-1845.78577 8448.04749
-1861.974033 8451.95496
-1794.113649 8455.86182
-1865.690063 8459.76807
-1836.550572 8463.67432
-1844.038136 8467.57996
-1864.476235 8471.48499
-1798.931456 8475.38879
-1896.338822 8479.2926
-1830.115131 8483.19641
-1882.17313 8487.09839
-1837.047203 8491.00098
-1793.613575 8494.90234
-1814.786957 8498.8031
-1865.630143 8502.70325
-1859.807138 8506.60339
-1899.045437 8510.50171
-1900.535961 8514.40125
-1874.327344 8518.29895
-1819.150616 8522.19604
-1871.209267 8526.09314
-1901.529796 8529.98901
-1909.583496 8533.8855
-1819.945901 8537.78015
-1909.326061 8541.6748
-1860.686687 8545.56885
-1810.276618 8549.46228
-1857.963501 8553.35571
-1800.679421 8557.24731
-1888.612289 8561.13953
-1886.093338 8565.03052
-1792.775796 8568.92151
-1840.839275 8572.81067
-1827.775459 8576.70105
-1816.370773 8580.5896
-1794.959135 8584.47754
-1788.206604 8588.36609
-1867.077249 8592.25281
-1837.214272 8596.13892
-1820.401701 8600.02502
-1936.719741 8603.91052
-1863.00526 8607.79541
-1842.013874 8611.67969
-1765.823028 8615.56335
-1819.150616 8619.44702
-1821.097904 8623.32947
-1832.398438 8627.21069
-1809.418376 8631.09253
-1910.987358 8634.97314
-1891.078652 8638.85376
-1890.324959 8642.73315
-1879.910557 8646.61255
-1837.343578 8650.49072
-1897.521293 8654.3689
-1872.041903 8658.24707
-1812.933942 8662.1228
-1769.459073 8665.99915
-1859.214501 8669.87488
-1823.483775 8673.75061
-1843.06398 8677.62451
-1854.486462 8681.49841
-1858.478718 8685.3717
-1812.083153 8689.24438
-1828.644392 8693.11707
-1814.14562 8696.98853
-1875.458763 8700.85938
-1879.432095 8704.72961
-1899.61256 8708.59985
-1851.802866 8712.46887
-1912.205521 8716.33789
-1870.731609 8720.20569
-1878.973526 8724.07349
-1763.837136 8727.94067
-1915.766518 8731.80725
-1894.830658 8735.67322
-1825.531196 8739.53796
-1935.761604 8743.40332
-1916.663238 8747.26624
-1817.583725 8751.13037
-1857.431194 8754.99329
-1771.066601 8758.85559
-1867.097916 8762.71729
-1815.873912 8766.57898
-1841.498909 8770.44006
-1851.656944 8774.29932
-1902.649105 8778.15918
-1897.571827 8782.01782
-1859.310367 8785.87585
-1849.464737 8789.73389
-1822.686597 8793.5907
-1866.870678 8797.44751
-1767.612672 8801.3031
-1795.674694 8805.1593
-1862.23185 8809.01367
-1884.815098 8812.86804
-1849.856692 8816.7218
-1837.267585 8820.57434
-1849.225498 8824.42749
-1847.905373 8828.27942
-1869.46151 8832.13013
-1815.71569 8835.98145
-1800.622352 8839.83154
-1931.667145 8843.68042
-1795.475717 8847.53052
-1799.666744 8851.37817
-1853.511898 8855.22644
-1827.8121 8859.07349
-1856.659676 8862.92053
-1870.160843 8866.76636
-1855.632164 8870.61157
-1835.777664 8874.4574
-1811.444368 8878.30078
-1842.389382 8882.14539
-1809.220667 8885.98816
-1811.528079 8889.83093
-1805.48686 8893.67249
-1830.929726 8897.51465
-1802.407726 8901.35498
-1911.809677 8905.19531
-1819.945901 8909.03503
-1766.448201 8912.87415
-1862.382031 8916.71326
-1839.071782 8920.55054
-1880.921928 8924.38843
-1857.670566 8928.2251
-1852.299416 8932.06116
-1905.57365 8935.89661
-1848.45351 8939.73206
-1817.602623 8943.56628
-1861.734947 8947.3999
-1834.663496 8951.23352
-1817.26861 8955.06592
-1899.045303 8958.89832
-1875.831261 8962.72949
-1876.876217 8966.56067
-1931.751884 8970.39063
-1810.372703 8974.22058
-1878.863506 8978.04993
-1847.717095 8981.87866
-1783.201813 8985.70618
-1822.728452 8989.53369
-1801.653377 8993.36121
-1870.4548 8997.18689
-1835.160187 9001.01257
-1811.901222 9004.83704
-1780.719024 9008.66211
-1816.535847 9012.48596
-1859.251835 9016.3092
-1897.024398 9020.13184
-1907.817764 9023.95386
-1835.595601 9027.77588
-1909.308136 9031.59668
-1885.631885 9035.41687
-1821.73574 9039.23645
-1842.271606 9043.05603
-1845.844181 9046.875
-1821.852474 9050.69275
-1804.633182 9054.5105
-1875.88253 9058.32642
-1793.01365 9062.14294
-1847.095713 9065.95825
-1835.280719 9069.77417
-1870.160843 9073.58826
-1864.475968 9077.40234
-1908.351112 9081.21582
-1858.97538 9085.02869
-1883.424218 9088.84033
-1912.271492 9092.65198
-1844.892204 9096.46301
-1810.556793 9100.27344
-1846.484387 9104.08325
-1793.870849 9107.89246
-1837.840253 9111.70105
-1812.579841 9115.50903
-1817.841393 9119.31641
-1828.406265 9123.12317
-1820.660076 9126.92932
-1877.355599 9130.73547
-1817.722184 9134.53979
-1814.145485 9138.34473
-1774.780012 9142.14783
-1858.111519 9145.95154
-1898.399131 9149.75464
-1884.398933 9153.55652
-1827.671669 9157.3584
-1767.41858 9161.15845
-1885.687477 9164.95972
-1773.727802 9168.75854
-1796.945263 9172.55859
-1885.153397 9176.3562
-1831.209511 9180.15503
-1933.996002 9183.95203
-1859.630983 9187.74902
-1834.684374 9191.5448
-1947.444614 9195.34058
-1909.565415 9199.13574
-1792.218216 9202.92969
-1912.89695 9206.72363
-1953.870353 9210.51636
-1890.084915 9214.30969
-1805.466187 9218.10181
-1876.551111 9221.89331
-1838.893619 9225.6842
-1759.546114 9229.47388
-1865.637093 9233.26416
-1876.672661 9237.05261
-1802.076551 9240.84106
-1838.944862 9244.62891
-1852.445515 9248.41675
-1783.366058 9252.20337
-1880.44442 9255.98938
-1839.886505 9259.77478
-1834.583134 9263.55957
-1840.323164 9267.34436
-1792.796787 9271.12732
-1771.066601 9274.91089
-1829.855934 9278.69324
-1799.70623 9282.47559
-1890.342282 9286.25671
-1898.840618 9290.03723
-1806.02529 9293.81775
-1875.368203 9297.59705
-1940.100815 9301.37634
-1885.339512 9305.15381
-1858.358268 9308.9325
-1844.315369 9312.70935
-1904.767647 9316.4856
-1833.828489 9320.26123
-1807.044021 9324.03687
-1803.327011 9327.8125
-1794.654987 9331.5863
-1836.550839 9335.36011
-1898.160335 9339.13208
-1786.08507 9342.90527
-1815.024347 9346.67664
-1828.986727 9350.448
-1790.212365 9354.21814
-1847.810768 9357.98889
-1889.127102 9361.75842
-1846.779136 9365.52673
-1843.913605 9369.29504
-1843.485908 9373.06274
-1862.967487 9376.83044
-1883.387501 9380.5957
-1887.598765 9384.36218
-1893.730573 9388.12744
-1872.423096 9391.89148
-1915.684533 9395.65613
-1910.062149 9399.41956
-1911.588974 9403.18237
-1890.214885 9406.94458
-1850.771019 9410.70557
-1832.656757 9414.46655
-1853.714268 9418.22693
-1886.97731 9421.98669
-1863.044548 9425.74646
-1818.673998 9429.50562
-1820.582421 9433.26294
-1839.310578 9437.02026
-1797.481835 9440.77698
-1896.853565 9444.53369
-1784.396732 9448.28918
-1836.550572 9452.04468
-1822.84568 9455.79834
-1815.198761 9459.55261
-1791.026543 9463.30627
-1857.821027 9467.05811
-1875.164192 9470.81055
-1860.780283 9474.56177
-1845.748314 9478.31238
-1799.788882 9482.06238
-1871.505537 9485.81238
-1794.720686 9489.56116
-1852.518803 9493.30933
-1865.193363 9497.05811
-1913.097378 9500.80505
-1837.694164 9504.55139
-1866.133919 9508.29773
-1790.832932 9512.04346
-1846.102742 9515.78735
-1860.780283 9519.53186
-1949.322857 9523.27515
-1829.213462 9527.01843
-1841.960251 9530.76172
-1883.848954 9534.50195
-1844.534481 9538.24341
-1885.871293 9541.98486
-1858.379478 9545.72449
-1891.09621 9549.4635
-1854.583544 9553.20251
-1870.400227 9556.94092
-1839.587963 9560.67871
-1874.189167 9564.41589
-1881.297402 9568.15125
-1891.509461 9571.88721
-1848.986084 9575.62256
-1783.164188 9579.3573
-1755.077402 9583.09021
-1943.212974 9586.82373
-1848.659004 9590.55664
-1824.612715 9594.28955
-1829.855934 9598.02063
-1801.358039 9601.7511
-1773.270353 9605.48157
-1849.836589 9609.21143
-1858.277998 9612.94128
-1848.784725 9616.66809
-1858.019907 9620.39612
-1769.774735 9624.12415
-1830.333161 9627.85095
-1843.044777 9631.57715
-1819.170613 9635.30151
-1803.439896 9639.02649
-1828.069786 9642.75146
-1747.512241 9646.47522
-1799.746682 9650.19714
-1883.574695 9653.92029
-1800.861351 9657.6416
-1881.58744 9661.36292
-1854.947006 9665.08423
-1830.591063 9668.80371
-1809.934635 9672.52319
-1807.67066 9676.24207
-1854.008793 9679.96094
-1866.500609 9683.67737
-1865.414814 9687.39441
-1822.532486 9691.11084
-1869.996109 9694.82666
-1783.95643 9698.54248
-1887.601116 9702.25586
-1883.387501 9705.96985
-1802.467344 9709.68323
-1833.055336 9713.39661
-1904.06551 9717.10754
-1912.161837 9720.81909
-1903.126671 9724.53064
-1838.719471 9728.24097
-1895.696862 9731.94946
-1885.374554 9735.65918
-1786.330936 9739.36768
-1832.558704 9743.07556
-1763.558332 9746.78284
-1865.157501 9750.48828
-1834.730297 9754.19495
-1855.775522 9757.90039
-1803.439896 9761.60522
-1847.095713 9765.30884
-1861.148323 9769.01245
-1861.716434 9772.71606
-1892.023551 9776.41846
-1882.4693 9780.12024
-1866.5399 9783.82019
-1820.462964 9787.52136
-1784.337024 9791.22131
-1747.219213 9794.92065
-1855.040492 9798.61877
-1869.241573 9802.31689
-1817.363826 9806.0144
-1876.34481 9809.71191
-1835.337952 9813.4082
-1792.020661 9817.10266
-1748.106225 9820.79773
-1831.068687 9824.4928
-1850.591511 9828.18604
-1821.318253 9831.87866
-1859.032705 9835.57129
-1885.082279 9839.26331
-1865.92939 9842.95471
-1963.841484 9846.64612
-1889.31416 9850.33569
-1851.30605 9854.02527
-1899.411396 9857.71362
-1781.640096 9861.40259
-1886.541948 9865.08911
-1814.226601 9868.77625
-1860.704716 9872.46277
-1830.773937 9876.14929
-1883.352154 9879.83459
-1915.857078 9883.51807
-1865.030489 9887.20215
-1813.926921 9890.88623
-1895.124047 9894.56909
-1870.418159 9898.25012
-1826.969078 9901.93115
-1929.123761 9905.61279
-1789.419224 9909.29321
-1849.520145 9912.97302
-1801.01909 9916.651
-1852.060955 9920.3302
-1858.681782 9924.00818
-1856.807759 9927.68494
-1851.326225 9931.36047
-1856.808029 9935.03723
-1794.761606 9938.71277
-1833.736736 9942.3877
-1912.975121 9946.0614
-1871.172268 9949.7345
-1837.782822 9953.40759
-1880.353783 9957.08008
-1827.631245 9960.75195
-1869.480423 9964.422
-1848.747177 9968.09265
-1830.773937 9971.7627
-1860.4473 9975.43152
-1764.216022 9979.10095
-1909.859703 9982.76733
-1981.94709 9986.43494
-1885.596267 9990.10193
-1855.737656 9993.76831
-1861.49622 9997.43286
-1850.849747 10001.09802
-1922.756748 10004.76257
-1809.084599 10008.42651
-1818.853641 10012.08923
-1922.433273 10015.75134
-1900.570274 10019.41284
-1863.979332 10023.07434
-1816.449867 10026.73523
-1879.966944 10030.39429
-1888.031321 10034.05334
-1828.366161 10037.71179
-1883.74001 10041.37024
-1885.964699 10045.02808
-1829.16114 10048.68408
-1935.522362 10052.34009
-1779.248686 10055.99609
-1877.355599 10059.65149
-1882.598046 10063.30444
-1910.080192 10066.95862
-1868.413071 10070.61218
-1876.157615 10074.26453
-1836.752876 10077.91626
-1891.525345 10081.56677
-1828.862836 10085.21729
-1835.244659 10088.8678
-1788.407089 10092.51709
-1874.392231 10096.16577
-1869.646271 10099.81384
-1851.028988 10103.4613
-1838.614788 10107.10754
-1817.939338 10110.75439
-1862.489586 10114.39941
-1865.507462 10118.04443
-1841.87233 10121.68884
-1832.874887 10125.33325
-1871.545434 10128.97522
-1807.969161 10132.6178
-1823.562638 10136.26038
-1837.145797 10139.90112
-1775.425766 10143.54187
-1757.967148 10147.1814
-1907.395639 10150.82153
-1856.253177 10154.46045
-1899.870365 10158.09937
-1857.504051 10161.73523
-1853.094132 10165.3717
-1853.352421 10169.00879
-1834.861065 10172.64404
-1832.816456 10176.27991
-1898.199112 10179.91333
-1868.229252 10183.54675
-1937.049808 10187.18018
-1804.652111 10190.81299
-1814.743898 10194.44397
-1891.647339 10198.07495
-1908.590111 10201.70593
-1890.515541 10205.33691
-1891.427303 10208.96606
-1901.875576 10212.5946
-1842.749882 10216.22253
-1874.565134 10219.85046
-1895.40023 10223.47778
-1898.274864 10227.10327
-1834.987446 10230.72876
-1840.7448 10234.35364
-1849.207745 10237.97852
-1847.185581 10241.60278
-1890.414952 10245.22461
-1851.94875 10248.84766
-1864.9543 10252.46948
-1884.585453 10256.09131
-1811.981946 10259.71069
-1823.857908 10263.3313
-1867.934448 10266.94946
-1855.897377 10270.56885
-1887.79007 10274.18823
-1892.879662 10277.80396
-1830.516575 10281.4209
-1813.668669 10285.03784
-1924.69384 10288.65479
-1831.326492 10292.26807
-1850.406544 10295.88135
-1879.671268 10299.49707
-1864.6968 10303.10913
-1825.844391 10306.72241
-1882.581127 10310.33325
-1876.729141 10313.94531
-1851.842684 10317.55493
-1852.739017 10321.16577
-1826.81881 10324.77417
-1777.424366 10328.38257
-1881.364594 10331.99097
-1845.420765 10335.59937
-1875.716721 10339.20654
-1930.776245 10342.81128
-1915.065663 10346.41724
-1866.281964 10350.02197
-1853.849006 10353.62671
-1837.286167 10357.229
-1891.54171 10360.83252
-1849.189808 10364.43481
-1864.315811 10368.03711
-1856.252906 10371.6394
-1887.894463 10375.23804
-1894.010154 10378.83789
-1894.556668 10382.43774
-1907.303429 10386.03638
-1881.934166 10389.63257
-1885.836056 10393.2312
-1872.627274 10396.82861
