0.0 1883.01102
0.0 1887.64923
-0.0 1892.28699
-0.0 1896.92459
-0.0 1901.56158
-0.0 1906.19812
-0.0 1910.83435
-0.0 1915.47043
0.0 1920.1059
0.0 1924.74091
0.0 1929.37561
0.0 1934.01001
-0.0 1938.6441
0.0 1943.27759
0.0 1947.91077
0.0 1952.54349
-0.0 1957.17575
0.0 1961.80786
0.0 1966.43951
0.0 1971.07071
0.0 1975.70145
0.0 1980.33203
0.0 1984.96216
0.0 1989.59167
-0.0 1994.22089
0.0 1998.84979
-0.0 2003.47855
-0.0 2008.10654
-0.0 2012.73422
-0.0 2017.3616
-0.0 2021.98853
-0.0 2026.61514
-0.0 2031.2413
-0.0 2035.867
-0.0 2040.4924
-0.0 2045.11734
-0.0 2049.74197
-0.0 2054.36615
-0.0 2058.99002
-0.0 2063.61343
-0.0 2068.23654
-0.0 2072.85919
-0.0 2077.48123
-0.0 2082.10327
-0.0 2086.72485
-0.0 2091.34583
-0.0 2095.96649
-0.0 2100.5867
-0.0 2105.20676
-0.0 2109.82635
-0.0 2114.44534
-0.0 2119.06403
-0.0 2123.6824
-0.0 2128.30048
-0.0 2132.91779
-0.0 2137.53494
-0.0 2142.15179
-0.0 2146.76819
-0.0 2151.38412
-0.0 2155.9996
-0.0 2160.61493
-0.0 2165.22949
-0.0 2169.84406
-0.0 2174.45801
-0.0 2179.07166
-0.0 2183.68484
-0.0 2188.29773
-0.0 2192.91031
-0.0 2197.52228
-0.0 2202.13379
-0.0 2206.745
-0.0 2211.35574
-0.0 2215.96634
-0.0 2220.57648
-0.0 2225.186
-0.0 2229.79553
-0.0 2234.4043
-0.0 2239.01276
-0.0 2243.62076
-0.0 2248.22845
-0.0 2252.83569
-0.0 2257.44278
-0.0 2262.0491
-0.0 2266.65512
-0.0 2271.26114
-0.0 2275.86639
-0.0 2280.47119
-0.0 2285.07568
-0.0 2289.67972
-0.0 2294.28345
-0.0 2298.88687
-0.0 2303.48984
-0.0 2308.09219
-0.0 2312.6944
-0.0 2317.29614
-0.0 2321.89758
-0.0 2326.49841
-0.0 2331.09894
-0.0 2335.69901
-0.0 2340.29892
-0.0 2344.89822
-0.0 2349.49707
-0.0 2354.09561
-0.0 2358.69385
-0.0 2363.29163
-0.0 2367.88895
-0.0 2372.48581
-0.0 2377.08237
-0.0 2381.67847
-0.0 2386.27441
-0.0 2390.8696
-0.0 2395.46463
-0.0 2400.0592
-0.0 2404.65332
-0.0 2409.24698
-0.0 2413.84033
-0.0 2418.43338
-0.0 2423.02597
-0.0 2427.6181
-0.0 2432.20993
-0.0 2436.80115
-0.0 2441.39221
-0.0 2445.98282
-0.0 2450.57297
-0.0 2455.16266
-0.0 2459.75189
-0.0 2464.34082
0.0 2468.92944
-0.0 2473.51761
-0.0 2478.10516
-0.0 2482.69272
-0.0 2487.27951
-0.0 2491.866
-0.0 2496.45218
-0.0 2501.0379
-0.0 2505.62317
-0.0 2510.20813
-0.0 2514.79279
-0.0 2519.37668
-0.0 2523.96057
-0.0 2528.54385
-0.0 2533.12683
-0.0 2537.7092
-0.0 2542.29126
-0.0 2546.87302
-0.0 2551.45432
-0.0 2556.035
-0.0 2560.61584
-0.0 2565.19592
-0.0 2569.7757
-0.0 2574.35455
-0.0 2578.93372
-0.0 2583.51196
0.0 2588.0899
-0.0 2592.66754
-0.0 2597.24487
-0.0 2601.8219
-0.0 2606.39832
-0.0 2610.97443
-0.0 2615.54993
-0.0 2620.12512
-0.0 2624.69971
-0.0 2629.27429
-0.0 2633.84827
-0.0 2638.42194
-0.0 2642.9953
-0.0 2647.56805
-0.0 2652.1405
-0.0 2656.71234
-0.0 2661.28387
-0.0 2665.8551
-0.0 2670.42572
-0.0 2674.99573
-0.0 2679.56604
-0.0 2684.13574
-0.0 2688.70483
-0.0 2693.27362
-0.0 2697.8418
-0.0 2702.40936
-0.0 2706.97693
-0.0 2711.54419
-0.0 2716.11053
-0.0 2720.67688
-0.0 2725.24292
-0.0 2729.80835
-0.0 2734.37347
-0.0 2738.93799
-0.0 2743.5025
-0.0 2748.0661
-0.0 2752.62939
-0.0 2757.19238
-0.0 2761.75507
-0.0 2766.31714
-0.0 2770.87891
-0.0 2775.44067
-0.0 2780.00122
-0.0 2784.56177
-0.0 2789.12201
-0.0 2793.68164
-0.0 2798.24097
-0.0 2802.79968
-0.0 2807.3584
-0.0 2811.9162
-0.0 2816.474
-0.0 2821.03149
-0.0 2825.58838
-0.0 2830.14465
-0.0 2834.70062
-0.0 2839.25629
-0.0 2843.81134
-0.0 2848.36639
-0.0 2852.92053
-0.0 2857.47467
-0.0 2862.0282
-0.0 2866.58142
-0.0 2871.13434
-0.0 2875.68634
-0.0 2880.23804
-0.0 2884.78973
-0.0 2889.34113
-0.0 2893.8913
-0.0 2898.44208
-0.0 2902.99164
-0.0 2907.54089
-0.0 2912.08984
-0.0 2916.63879
-0.0 2921.18683
-0.0 2925.73456
-0.0 2930.28198
-0.0 2934.82849
-0.0 2939.37561
-0.0 2943.92151
-0.0 2948.46741
-0.0 2953.01239
-0.0 2957.55737
-0.0 2962.10175
-0.0 2966.64581
-0.0 2971.18958
-0.0 2975.73242
-0.0 2980.27557
-0.0 2984.81812
-0.0 2989.35974
-0.0 2993.90137
-0.0 2998.44238
-0.00427545599982 3002.9834
0.000592836678063 3007.5235
-0.000327433156132 3012.0636
-0.00242935867286 3016.60278
-0.00459060834743 3021.14197
-0.00511350494051 3025.68054
-0.000692253964972 3030.21881
-0.00345284175625 3034.75677
-0.00610761235184 3039.29413
-0.00263571425128 3043.83118
-0.00693624218547 3048.36761
-0.00997508930064 3052.90375
-0.00186783322554 3057.43958
-0.00627576087384 3061.9751
-0.00678275864673 3066.5097
-0.00283835035495 3071.04431
-0.00538723624995 3075.578
-0.00398738651955 3080.11169
-0.00481109567307 3084.64508
-0.00348586753648 3089.17755
-0.00279437242691 3093.71063
-0.00290198404408 3098.24219
-0.0012584974016 3102.77374
-0.00310217358275 3107.30499
-0.00409745359867 3111.83563
0.00160141012328 3116.36597
0.00191003011388 3120.89569
0.00101014898925 3125.42511
0.00157181182613 3129.95422
-0.00010191285591 3134.48273
0.00172383836458 3139.01093
-0.00146361587692 3143.53882
-0.00340192749239 3148.0658
-0.00395424504289 3152.59308
-0.00565029029873 3157.11975
-0.00306546477977 3161.64581
-0.00546044319935 3166.17126
-0.00300594756686 3170.69672
-0.0065509442814 3175.22156
-0.00138870330061 3179.74579
-0.00725520780036 3184.27002
-0.00420151508312 3188.79333
-0.00191010795106 3193.31665
-0.00306500159642 3197.83936
-0.00107520557318 3202.36176
-0.0021027833828 3206.88354
-0.0035579640647 3211.40503
-0.0020560709358 3215.92651
-0.00239755147389 3220.44647
-0.0011979854511 3224.96704
-0.00294947929743 3229.48639
-0.00298805492195 3234.00604
-0.00306762518623 3238.52509
-0.00148740017299 3243.04352
-0.0022876122784 3247.56165
-0.00139235107013 3252.07916
-0.00226708735221 3256.59668
0.000250002618121 3261.11328
-0.0012839333513 3265.62988
-0.00316169505302 3270.14557
-0.00130077942156 3274.66156
-0.00293464036009 3279.17664
-0.00182663793811 3283.6911
-0.00258687101423 3288.20557
-0.00127563785163 3292.71942
-0.00186707797611 3297.23297
-0.00183951571638 3301.74561
-0.0021444117388 3306.25854
-0.00123756920691 3310.77026
-0.0025438813063 3315.28229
-0.000246964908308 3319.7937
-0.000381875182345 3324.3045
-0.000751850453873 3328.815
-0.00127939522039 3333.32489
-0.000929555245579 3337.83478
0.000229096857115 3342.34406
3.21641259842e-05 3346.85303
-0.000640609516705 3351.36078
0.000380198503163 3355.86914
-0.0017593985559 3360.37659
-0.000934115798591 3364.88342
0.000462525761546 3369.39026
-0.000856139089208 3373.89648
-0.000575352435351 3378.4024
-0.000988906944528 3382.90771
-0.00180805986288 3387.41272
-0.00216840860814 3391.91681
5.77275515451e-05 3396.4212
-0.000543736633693 3400.92468
-0.00130098332647 3405.42816
-0.000866836882146 3409.93103
5.51229104126e-05 3414.43329
-0.000957940579299 3418.93555
-0.00159866663245 3423.43689
-0.000965889945779 3427.93793
-0.00103626234496 3432.43866
2.61379138289e-05 3436.93878
0.00101531056245 3441.4389
0.00195808901112 3445.93842
-0.000178668278986 3450.43732
7.55219437293e-05 3454.93591
-0.00139725773172 3459.43359
-1.47576749397e-07 3463.93158
-0.00290375568248 3468.42896
0.00031342360752 3472.92542
-0.000525302853433 3477.42218
2.34811833511e-05 3481.91803
-7.03671432379e-05 3486.41357
-0.00111398753021 3490.90881
0.000597972298508 3495.40314
0.000707261470254 3499.89777
-0.000181294392797 3504.39148
0.000449120224178 3508.88489
-0.000624049091519 3513.37799
-0.00167925628335 3517.87048
6.55147486533e-05 3522.36267
0.000779581035939 3526.85425
-0.000578800721844 3531.34552
0.000741312324362 3535.83649
-0.000397968725394 3540.32684
0.000537639853633 3544.81659
0.00149126072104 3549.30634
-0.000383852067537 3553.79517
-9.99454484456e-05 3558.2843
0.00041454899121 3562.77222
0.000722990384776 3567.26013
0.000135387587376 3571.74774
-7.68454327172e-05 3576.23444
0.0012164478631 3580.72113
-0.00130121106769 3585.20721
-0.000149633791631 3589.69299
0.000740851180026 3594.17786
-5.51920584199e-05 3598.66302
0.00161827315455 3603.14697
-0.000180278123079 3607.63123
0.000106909312318 3612.11456
0.00116483977707 3616.5976
-0.000209788020291 3621.08032
0.0004666737987 3625.56244
0.00162460925956 3630.04456
0.00236883345471 3634.52576
0.00772658618073 3639.00696
0.0208256904301 3643.48663
0.0405600869606 3647.96722
0.0512136456885 3652.4469
0.0536599648002 3656.92596
0.0420711281677 3661.40472
0.0290170570288 3665.88287
0.0182138257587 3670.36102
0.00877513005458 3674.83826
0.00471393490835 3679.31549
0.001919166536 3683.79181
0.00117803219109 3688.26843
0.000793740507903 3692.74384
0.000237597585039 3697.21924
0.000427142058062 3701.69403
0.000671996567159 3706.16821
0.00104321357162 3710.6427
0.00155196917081 3715.11566
0.000798351637857 3719.58923
0.00134323844061 3724.06158
0.000420801703991 3728.53424
0.000556540687361 3733.00568
-0.0002347854486 3737.47711
0.000123149369364 3741.94794
-0.00014947794237 3746.41846
0.000673221168589 3750.88898
-0.000120288940107 3755.35828
0.000172047248087 3759.82758
0.000236146783859 3764.29596
0.000182000505887 3768.76465
0.00056681763148 3773.23242
0.000306272176875 3777.69989
-0.000379502847062 3782.16675
-1.26025985362e-05 3786.6333
2.47493383238e-05 3791.09985
0.000467455898285 3795.56519
0.000426977591528 3800.03052
0.0014159082751 3804.49524
0.000793076887416 3808.95996
0.00119345398428 3813.42377
-0.000273021680949 3817.88727
0.00134418063893 3822.35046
0.000703711432632 3826.81274
0.00109658134115 3831.27533
-0.000313628158916 3835.73669
-0.000300515730328 3840.19836
0.000436804842368 3844.65912
-0.000206090332927 3849.11957
9.10754787571e-05 3853.57971
0.000136062807568 3858.03925
0.000395404452471 3862.49847
0.000619128886445 3866.95679
0.000123399242265 3871.41541
0.000123054542568 3875.87311
0.000189732192111 3880.33051
-0.000211753780791 3884.78729
0.00043346387349 3889.24408
-0.000255331949401 3893.69995
-0.000310285422243 3898.15552
0.000276396288837 3902.61078
-6.60745548152e-08 3907.06543
0.00018736055923 3911.52008
0.000550336063194 3915.97351
6.5911821138e-05 3920.42725
1.09134197488e-05 3924.87976
1.09009832967e-05 3929.33289
-0.000219249373177 3933.78479
-0.00153353428843 3938.23639
-0.000131301970427 3942.68768
-0.000426194758249 3947.13837
-0.000141945763898 3951.58905
-0.000261712004103 3956.03851
-0.000827776995094 3960.48798
6.51726781802e-05 3964.93683
-0.000434382639146 3969.38568
0.000249173594427 3973.83392
-0.000811597127829 3978.28156
-0.000161995049852 3982.72888
-0.00061416764081 3987.1756
-0.000387007408507 3991.62201
0.000117875777748 3996.06781
0.000577535419216 4000.51361
0.000160062455369 4004.95819
-7.46481416538e-05 4009.40308
0.000510297999689 4013.84705
0.000201620443464 4018.29102
0.000328441902687 4022.73438
0.000423126450603 4027.17682
0.00187918206218 4031.61926
0.0124734255814 4036.0611
0.037308640003 4040.50293
0.0753693616614 4044.94385
0.0958706837524 4049.38446
0.086924905325 4053.82477
0.0553137642978 4058.26447
0.0297226165693 4062.70386
0.0142755712026 4067.14233
0.00859292854075 4071.58081
0.00952305461942 4076.01868
0.0101201878018 4080.45624
0.00913018124583 4084.89319
0.00621903623896 4089.33014
0.00313760225827 4093.76617
0.00158441466084 4098.2019
0.00066686672622 4102.63702
0.000635111227039 4107.07184
0.000520133284668 4111.50635
0.000509227979945 4115.94025
-0.000322016908534 4120.37384
0.000414719961936 4124.80682
-0.000155423393149 4129.23981
0.000268767797599 4133.67126
0.000247664206825 4138.10333
0.000278097119931 4142.53479
0.000298083285728 4146.96533
-6.13880151486e-08 4151.39587
-4.10004315324e-05 4155.82581
0.000132636768629 4160.25543
-0.000325871611695 4164.68414
-6.09690999323e-05 4169.11285
0.000141620168335 4173.54065
0.000665641993124 4177.96875
-7.04615974449e-05 4182.39594
0.000300639808058 4186.82281
0.000279684550939 4191.24908
0.000199128079773 4195.67505
-9.93558789167e-05 4200.10071
1.97416554766e-05 4204.52545
-0.00014815090686 4208.9502
-0.000561463976269 4213.37372
0.000451777097979 4217.79785
-0.00016675541829 4222.22107
0.000332711203027 4226.64368
0.000185668616674 4231.06628
-0.000488443241882 4235.48798
-0.000322131334174 4239.90967
0.00030226429794 4244.33044
-0.000341406336713 4248.75092
0.000643331040801 4253.17078
0.000107213285807 4257.59064
0.00053638270687 4262.00989
0.000497611466237 4266.42853
0.000722412320651 4270.84686
0.000488482150066 4275.26459
0.00022485824526 4279.68201
-4.89972012192e-05 4284.09912
-0.000901338893426 4288.51563
0.000421125299565 4292.93121
0.000107716010055 4297.34711
-6.86357077805e-05 4301.76239
-7.83870369554e-05 4306.17706
-0.000146783264481 4310.59113
-0.0001661167663 4315.00488
-0.0002243289847 4319.41833
0.000213971479022 4323.83087
0.000252289562047 4328.24341
0.000783939951552 4332.65533
0.00147650604345 4337.06726
0.00360607068118 4341.47827
0.0108813872627 4345.88867
0.0400368119751 4350.29877
0.107221568203 4354.70825
0.160107246053 4359.11804
0.173033041497 4363.52661
0.12714000668 4367.93518
0.0778548096517 4372.34283
0.0459949142769 4376.75049
0.0240769844186 4381.15723
0.00986583161881 4385.56396
0.00420095188938 4389.9704
0.00266277224845 4394.37561
0.00094703731267 4398.78113
0.000888172583431 4403.18573
0.000802052437067 4407.59033
0.000349131277347 4411.99341
-1.83755985389e-05 4416.39709
0.000264685629101 4420.79956
0.000445909070414 4425.20264
0.000381177876372 4429.6051
-0.000570753665585 4434.00604
7.22328037156e-05 4438.40759
0.000288473272301 4442.80762
-0.000306117163114 4447.20825
-0.000611130583887 4451.60767
0.000125476808251 4456.00739
0.000223657382264 4460.40558
-9.82968678525e-05 4464.80438
0.000356305242908 4469.20258
0.000613107734319 4473.59955
7.97366342511e-05 4477.99713
4.415401537e-05 4482.39319
0.000229172475132 4486.78955
0.000149411229181 4491.185
0.000823823153737 4495.58014
0.000498252941544 4499.97498
-0.000148329901276 4504.36951
0.000304395916999 4508.76343
-3.47704996188e-05 4513.15674
-0.000433135487076 4517.54974
0.000250526722796 4521.94183
0.000543173991578 4526.33392
-0.00055119581143 4530.7251
0.000171836241435 4535.11688
-3.43833141855e-05 4539.50684
0.000188507116755 4543.8974
7.70069455759e-05 4548.28735
5.98314808278e-05 4552.67639
-0.000290759385089 4557.06543
0.000222079543451 4561.45325
-9.40007145166e-05 4565.84137
8.5314058747e-05 4570.22858
0.000162055814148 4574.61578
0.000102267564405 4579.00208
6.80960551762e-05 4583.38867
-0.000519125034362 4587.77405
0.000526297768441 4592.15912
-0.000169502382511 4596.54388
-0.000304188046539 4600.92773
-0.000522054035791 4605.31189
0.00077923441744 4609.69513
0.000258568348876 4614.07806
8.29500609115e-05 4618.46008
0.000486746013339 4622.84241
-0.000106681881163 4627.22351
-4.89372017783e-05 4631.60461
0.000663081979523 4635.98541
0.000313023843323 4640.3653
0.000390147987412 4644.74518
1.5745770023e-05 4649.12384
0.000140851881541 4653.50281
0.000116294179697 4657.88086
0.00019967799058 4662.25891
0.00062352675124 4666.63605
0.000301137932036 4671.01318
0.000871642612207 4675.39001
0.00058254156578 4679.76563
0.000270011696545 4684.14124
0.000129963953098 4688.51593
0.000300040200393 4692.89063
0.000219070134435 4697.2644
0.000181720740591 4701.63849
0.000152042184811 4706.01135
-5.47234063223e-05 4710.38422
-2.0307487719e-05 4714.75677
0.000373654454213 4719.12811
0.000237279213632 4723.50006
0.0004620946973 4727.87048
0.000719558883993 4732.24121
0.000577115038596 4736.61072
0.000381816480856 4740.98053
0.000463213047578 4745.34943
3.6542865104e-05 4749.71802
0.000138297503749 4754.0863
0.000575420265644 4758.45367
0.000327825417162 4762.82104
0.000323479106334 4767.1875
0.000621202290124 4771.55426
0.000652364865009 4775.91949
0.00049954605188 4780.28503
0.000837933511009 4784.64966
0.000972901037874 4789.01428
0.00134417617608 4793.3786
0.00117982883103 4797.7417
0.0016327523256 4802.1051
0.00180793776865 4806.46698
0.00206042923807 4810.82947
0.00300331618608 4815.19073
0.0033617267314 4819.552
0.00453498310654 4823.91266
0.00591159786435 4828.27301
0.00750056091343 4832.63306
0.00898051012109 4836.99188
0.0113507498043 4841.35101
0.013785740935 4845.70923
0.0157971831615 4850.06744
0.0184025268932 4854.42413
0.0211422680243 4858.78174
0.0240313316972 4863.13782
0.0258166004692 4867.4939
0.0269274589994 4871.84998
0.0271414201187 4876.20453
0.0267339488568 4880.55939
0.0255562364125 4884.91333
0.0244637385114 4889.26727
0.0228883847679 4893.6203
0.0213602402508 4897.97302
0.0198647272915 4902.32513
0.019047041604 4906.67755
0.0188790040263 4911.02905
0.0185557197774 4915.37964
0.017470812893 4919.73022
0.016611107075 4924.0799
0.015874452711 4928.42957
0.014743437149 4932.77832
0.0134482932179 4937.12738
0.0127950288873 4941.47491
0.012241290284 4945.82275
0.0114348506117 4950.17029
0.0106451968623 4954.5166
0.0102514224877 4958.86292
0.00998788596893 4963.20831
0.00918013128518 4967.55402
0.00874946404747 4971.8985
0.00814098812892 4976.24298
0.00785868096585 4980.58655
0.00716540114427 4984.93042
0.00694040655698 4989.27368
0.00578641642102 4993.61572
0.00571647924807 4997.95807
0.0053785293286 5002.29919
0.00454885718707 5006.64063
0.00443768932453 5010.98083
0.00384260932466 5015.32104
0.00352920133682 5019.66064
0.00317548152032 5023.99994
0.00272848440003 5028.33893
0.00244848088334 5032.677
0.00250552553174 5037.01477
0.00214047078501 5041.35193
0.00196629178597 5045.68909
0.00163086258253 5050.02502
0.00155060279862 5054.36127
0.00125339061397 5058.69629
0.00115030731742 5063.03162
0.00122429796209 5067.36603
0.00110623445187 5071.69983
0.0013127083658 5076.03363
0.000764129314566 5080.36621
0.00103127595739 5084.6994
0.000755425819641 5089.03107
0.000978901266482 5093.36304
0.000723363405491 5097.69379
0.000958964484502 5102.02484
0.000915085859064 5106.35529
0.000687464478767 5110.68481
0.000671434670018 5115.01434
0.000575471072508 5119.34265
0.000511421354618 5123.67126
0.00057908576753 5127.99927
0.000642624005971 5132.32605
0.000634250291114 5136.65344
0.000777162762035 5140.97961
0.000541673030663 5145.30579
0.000374077554365 5149.63135
0.000131197250577 5153.95691
0.000349398471135 5158.28064
0.000222081071572 5162.60498
0.000368281966723 5166.92871
0.000399418828509 5171.25183
0.000469965130422 5175.57373
0.00045363717928 5179.89624
0.000433483375806 5184.21753
0.000370166014588 5188.53943
0.000499812096051 5192.86072
0.000523328951346 5197.18018
8.66016926243e-05 5201.50024
0.000405613712369 5205.81909
0.000358673292429 5210.13855
0.000126282148672 5214.45679
0.000288447842399 5218.77502
0.000150387372699 5223.09204
0.00017441460308 5227.40906
0.000547791667242 5231.72546
4.37435283097e-05 5236.04187
0.000235104749412 5240.35767
0.000443063497533 5244.67224
0.000283983834518 5248.98682
0.000300569290895 5253.30078
0.000196781529314 5257.61475
0.000177067500266 5261.92749
0.000217751575936 5266.24023
0.000456491889189 5270.55237
0.000530185883146 5274.86389
0.000531129039118 5279.17542
0.000284326764461 5283.48572
0.00060589188056 5287.79663
0.000606627390972 5292.10571
0.0005746642707 5296.41541
0.000717838472864 5300.72388
0.000836652046993 5305.03235
0.000882101637042 5309.34082
0.00106636529568 5313.64746
0.0011038125416 5317.95532
0.00144772761968 5322.26135
0.00259593675218 5326.56738
0.00382917466752 5330.8728
0.00474079966776 5335.17822
0.00507547559687 5339.48242
0.00488145040443 5343.78662
0.00440550737553 5348.09082
0.00455014203206 5352.39319
0.00500229115697 5356.69617
0.00556196893566 5360.99792
0.00667132122059 5365.29968
0.008819734696 5369.60083
0.0111710704096 5373.90137
0.0136231536241 5378.2019
0.0164517348077 5382.50183
0.018866011014 5386.80115
0.0223100612288 5391.09985
0.0272614566208 5395.39795
0.0347865851608 5399.69543
0.0464942451406 5403.99292
0.0636073496193 5408.28979
0.0860558038393 5412.58606
0.107125350823 5416.88171
0.119021044679 5421.17737
0.118314981863 5425.47302
0.112546630199 5429.76685
0.108019397658 5434.06128
0.10463567981 5438.35388
0.103588842042 5442.64771
0.100867765066 5446.9397
0.10938159193 5451.2323
0.159028037794 5455.52307
0.209888646241 5459.81506
0.23895865243 5464.10583
0.207087252748 5468.39539
0.157636815851 5472.68555
0.131873928323 5476.97449
0.116500347295 5481.26282
0.100021453756 5485.55054
0.083690548969 5489.83887
0.0707111713261 5494.12598
0.0589559730536 5498.41309
0.0511921077982 5502.69958
0.0451541649225 5506.98486
0.0398407555314 5511.27075
0.0348964029476 5515.55481
0.0303202735064 5519.83948
0.026914271166 5524.12292
0.0237761139799 5528.40698
0.0212745276821 5532.6886
0.0187978358255 5536.97205
0.0165914558479 5541.25366
0.0143911536775 5545.53467
0.0122441295607 5549.81628
0.0107488570635 5554.09607
0.00953453868709 5558.37646
0.00828241350411 5562.65564
0.00752851650416 5566.93481
0.00680765966274 5571.21338
0.00569192137287 5575.49133
0.00537322967469 5579.76929
0.00479346794618 5584.04602
0.00420156253051 5588.32275
0.0044111134455 5592.59888
0.00377842477091 5596.87439
0.00339500612108 5601.14929
0.00316242394921 5605.42419
0.00301223009491 5609.69788
0.0031884494622 5613.97156
0.00265954126829 5618.24524
0.00262848545582 5622.5177
0.0023708784554 5626.79016
0.00266095893401 5631.0614
0.00269469651401 5635.33264
0.00250019330516 5639.60327
0.00213101481414 5643.87329
0.0023371592118 5648.14331
0.00216325250719 5652.41272
0.00203655232565 5656.68213
0.00171318773228 5660.94971
0.00189088713839 5665.2179
0.0023073671869 5669.48425
0.00168273561107 5673.75183
0.00202442061796 5678.01819
0.00177372394687 5682.28394
0.00208124362584 5686.54846
0.00211631591758 5690.81421
0.00179339255566 5695.07874
0.00157386665583 5699.34265
0.00169954585687 5703.60596
0.0012272714961 5707.86865
0.00123147584413 5712.13074
0.00119360098176 5716.39282
0.000977115596001 5720.6543
0.00120176760218 5724.91516
0.000997972106382 5729.17603
0.00091601253173 5733.43567
0.00127116023536 5737.69531
0.00124206905645 5741.95435
0.00148562528474 5746.21277
0.00162504867888 5750.47119
0.00176046616156 5754.72839
0.0029921826785 5758.9856
0.00974304225692 5763.24158
0.0211640702937 5767.49817
0.0283517479415 5771.75293
0.0277356940639 5776.0083
0.0201236405058 5780.26306
0.0221695129334 5784.51721
0.0300362004299 5788.77136
0.0358852127301 5793.02429
0.0359618694806 5797.27661
0.0298551913366 5801.52832
0.0277497865358 5805.78064
0.0258224944134 5810.03113
0.0244559200397 5814.28223
0.0231511702864 5818.53271
0.0239015560839 5822.78198
0.0252822023381 5827.03125
0.0257493249401 5831.2793
0.0266349868922 5835.52795
0.0263904821143 5839.77539
0.0271447589585 5844.02283
0.0265755169187 5848.26965
0.0257081727659 5852.51587
0.0254290341054 5856.76208
0.025214357248 5861.00647
0.0281387018286 5865.25208
0.0359078214517 5869.49524
0.0430427482405 5873.73962
0.0449091354407 5877.98218
0.0377715519694 5882.22534
0.0322278053352 5886.46729
0.0272283730877 5890.70984
0.0234570768188 5894.95117
0.0220365719075 5899.19128
0.020163394625 5903.43201
0.0195130017368 5907.67151
0.0202061765575 5911.91101
0.0212703563584 5916.1499
0.0235033601895 5920.38818
0.0288848660345 5924.62524
0.0344369266363 5928.86292
0.0385456363343 5933.10059
0.0380168050405 5937.33582
0.0335139281091 5941.57227
0.0292220313397 5945.8075
0.0242234284386 5950.04272
0.0217148638818 5954.27673
0.0196459568573 5958.51074
0.0180701039877 5962.74353
0.0169229566474 5966.97632
0.0157081155209 5971.20911
0.0152023308256 5975.44067
0.0155588587876 5979.67224
0.0181138780954 5983.9032
0.0211110238287 5988.13354
0.024117220267 5992.36328
0.0256972325573 5996.59241
0.0261343871213 6000.82153
0.0240002479983 6005.05005
0.0223978237134 6009.27795
0.0200325237675 6013.50525
0.0177349739122 6017.73254
0.0154411246337 6021.95862
0.0136992113261 6026.18408
0.011948429814 6030.40955
0.0114577495326 6034.6344
0.0113245227014 6038.85925
0.0113073227992 6043.0835
0.0113788207632 6047.30652
0.011856657633 6051.52893
0.0120341396366 6055.75195
0.0130088455525 6059.97375
0.0135255967495 6064.19495
0.0155658788404 6068.41553
0.0174729966814 6072.63672
0.0199545475474 6076.85608
0.0231058477175 6081.07605
0.0284670291361 6085.2948
0.0354987226299 6089.51294
0.0479291592622 6093.73108
0.0651890405961 6097.948
0.104321727387 6102.16553
0.179798556395 6106.38123
0.275176336701 6110.59753
0.347288449415 6114.81262
0.353668909081 6119.02832
0.307004135425 6123.24219
0.257291260248 6127.45605
0.225530306298 6131.66931
0.202635861327 6135.88196
0.184461439513 6140.0946
0.165544000025 6144.30664
0.144194695452 6148.51807
0.124974748264 6152.72827
0.104155666691 6156.93909
0.086855496013 6161.14929
0.0725102008199 6165.35889
0.0611304689257 6169.56787
0.0515595905263 6173.77563
0.0443183998442 6177.9834
0.0383326878658 6182.19055
0.0333902895609 6186.39832
0.0293042408243 6190.60364
0.0272350930414 6194.81018
0.0246951663929 6199.01611
0.0247941445542 6203.22083
0.0252338959077 6207.42493
0.0245390566199 6211.62842
0.0240176237746 6215.83191
0.024351970307 6220.03418
0.0240113672499 6224.23706
0.0251685090392 6228.43872
0.0270807549612 6232.64038
0.0276276294926 6236.84143
0.0287585187387 6241.04126
0.0286992516248 6245.2417
0.0293860422618 6249.44031
0.0295135588261 6253.64014
0.0303643235372 6257.83752
0.030418050786 6262.03552
0.0312736032866 6266.2323
0.0313304906646 6270.42969
0.0306349182138 6274.62585
0.0296166386964 6278.82141
0.029240810095 6283.01697
0.0290500330344 6287.2113
0.029100424038 6291.40625
0.0299883042621 6295.59998
0.0342827139039 6299.79309
0.0413862274425 6303.9856
0.0476621503792 6308.1781
0.0524302386769 6312.37
0.0490478621965 6316.56067
0.0409779340359 6320.75195
0.0333153392458 6324.94202
0.0265464833936 6329.13208
0.0220530927047 6333.32092
0.0180612602905 6337.50977
0.0146743677087 6341.69739
0.0125859688123 6345.88562
0.0102758430854 6350.07263
0.00834935260236 6354.25964
0.0075272717324 6358.44543
0.00707855432108 6362.63123
0.00631001126616 6366.81641
0.00629449596994 6371.00037
0.00547905102839 6375.18494
0.00537021438985 6379.36829
0.00487257773294 6383.55164
0.00500677045633 6387.73438
0.00424140913362 6391.9165
0.00395259337916 6396.09863
0.00448462159315 6400.27893
0.00380866766532 6404.45984
0.00422953388007 6408.63953
0.0036097144578 6412.81921
0.00404784783677 6416.99829
0.00402897490283 6421.17676
0.00399463715941 6425.35461
0.00396011756439 6429.53247
0.00441982830852 6433.70972
0.00451824897381 6437.88635
0.00442326162042 6442.06177
0.0043747541997 6446.23718
0.00481885029558 6450.4126
0.00412098620014 6454.58618
0.0041035784614 6458.76099
0.00436283309502 6462.93396
0.00421958168414 6467.10693
0.00387614876112 6471.27991
0.00398515400202 6475.45166
0.0044707204694 6479.62341
0.00436387691837 6483.79333
0.00449703936488 6487.96448
0.00536435453131 6492.13379
0.00657324337802 6496.3031
0.00931194822191 6500.4718
0.0129485087296 6504.63989
0.0141180228826 6508.80859
0.0130255537523 6512.97546
0.0117006664252 6517.14233
0.0100687903838 6521.30859
0.0095723361547 6525.47485
0.00976152886345 6529.63928
0.00924835939611 6533.80432
0.00833159553441 6537.96814
0.00766660877433 6542.13196
0.0064203012269 6546.29578
0.00510893399109 6550.45837
0.00552955944343 6554.62036
0.00511844672808 6558.78174
0.00497292189982 6562.94312
0.00484354209537 6567.10327
0.00369516275047 6571.26404
0.0049039761541 6575.42358
0.00439347881767 6579.58252
0.00438115511241 6583.74084
0.00379845499775 6587.89917
0.00436600617618 6592.05688
0.00345409820939 6596.21338
0.00363743843533 6600.37048
0.00249175989313 6604.52637
0.00366924647707 6608.68164
0.00387142240309 6612.83691
0.0041961332381 6616.99158
0.00643190099953 6621.14502
0.00836068922669 6625.29846
0.00884559863401 6629.45129
0.00799144319948 6633.60413
0.00706193786663 6637.75635
0.00568568286835 6641.90674
0.00498365605676 6646.05835
0.00477605139691 6650.20813
0.00457709280662 6654.35791
0.00396598311929 6658.50769
0.00305433356063 6662.65625
0.00368962565893 6666.8042
0.00295250002552 6670.95215
0.00324813603563 6675.09949
0.00217340907191 6679.24622
0.00276337014951 6683.39233
0.00278560980646 6687.53784
0.00262207175162 6691.68335
0.00230729497428 6695.82825
0.00155785413108 6699.97192
0.0024115225042 6704.1156
0.00201470908883 6708.25867
0.00223098992292 6712.40173
0.0014773551666 6716.54358
0.00183631266638 6720.68481
0.00246612782322 6724.82605
0.00206126734664 6728.96667
0.00271580040275 6733.10669
0.00171777945419 6737.24609
0.00188982874003 6741.38489
0.00176037782725 6745.52307
0.00118832720476 6749.66064
0.00227677133632 6753.79822
0.00121777112163 6757.93579
0.00121285654218 6762.07153
0.000509240894832 6766.20789
0.00183407667281 6770.34241
0.0016305634889 6774.47754
0.00149597202828 6778.61206
0.00188760906606 6782.74597
0.00189537369906 6786.87866
0.00250613039523 6791.01135
0.00191067294944 6795.14404
0.00203156473754 6799.27551
0.00251527068323 6803.40698
0.00287796068977 6807.53723
0.0032121046568 6811.66748
0.0024297358181 6815.79712
0.00206113051909 6819.92615
0.00217486509885 6824.05457
0.00138902392451 6828.18298
0.00189463172331 6832.31018
0.00246804043812 6836.43738
0.00156648973332 6840.56335
0.00151854980427 6844.68994
0.0025713980395 6848.81531
0.0022876100455 6852.93945
0.00300102024773 6857.06482
0.00312982720914 6861.18774
0.00382684415624 6865.31128
0.00575238394245 6869.43481
0.00677715895793 6873.55713
0.00806039455816 6877.67883
0.00846014494827 6881.79932
0.00803576987548 6885.92041
0.00684463910239 6890.04089
0.00620297940965 6894.16016
0.00501947712648 6898.27881
0.00444532105408 6902.39868
0.00379837551359 6906.51611
0.00268980179614 6910.63354
0.00177564417985 6914.75098
0.00212895492028 6918.86719
0.00153767915475 6922.9834
0.00177613744614 6927.099
0.00374979281993 6931.2146
0.0050694215411 6935.32837
0.00621976648673 6939.44214
0.00551106427776 6943.55652
0.00389070609243 6947.66846
0.00366519878464 6951.78101
0.00313064447386 6955.89294
0.00223668040967 6960.00366
0.00220809560939 6964.11438
0.00203637733349 6968.2251
0.00121489781051 6972.33459
0.0012442545365 6976.44409
0.000983114891651 6980.55298
0.00078067876042 6984.66064
0.000527269472079 6988.76831
0.000936851746601 6992.87537
0.00107823812737 6996.98181
0.000486007387811 7001.08826
0.00063887820863 7005.19348
0.000755377140657 7009.2981
0.000202365190605 7013.40271
0.000660579781604 7017.50732
0.000357068290435 7021.61011
0.000921213252436 7025.7135
0.0011162574257 7029.81567
0.00110604663621 7033.91724
0.00177796634546 7038.0188
0.00355982137041 7042.11914
0.00442927651592 7046.21948
0.00535236357671 7050.31921
0.0064723716024 7054.41895
0.00865787039938 7058.51746
0.0126512713759 7062.61536
0.0169600367698 7066.71265
0.0199473381485 7070.81055
0.0206612887998 7074.90662
0.0208138506977 7079.0033
0.022086336894 7083.09814
0.0252247392956 7087.19299
0.0278966707415 7091.28784
0.0257640773873 7095.38147
0.0221107124476 7099.4751
0.0174350456683 7103.5675
0.0139899940351 7107.66052
0.0141006423982 7111.75171
0.017340022605 7115.8429
0.0203586311595 7119.93347
0.0222330219692 7124.02405
0.0213927318949 7128.11401
0.017156411822 7132.20276
0.0137555563916 7136.2915
0.0106207372396 7140.37964
0.00793500494896 7144.46777
0.0059126421609 7148.55408
0.00465978879151 7152.64099
0.00270722558559 7156.72668
0.00280388122365 7160.81177
0.0021628921115 7164.89746
0.000529304245498 7168.98132
0.00145227080374 7173.06519
0.000882130371412 7177.14844
1.44590285266e-05 7181.23108
0.00109741105071 7185.31372
-7.37213930063e-05 7189.39514
8.8802685951e-05 7193.47595
0.000193657263666 7197.55676
-0.000135010325898 7201.63696
-0.00034680537698 7205.71716
-0.00071239779428 7209.79614
-0.000487445223873 7213.87451
0.000106999574363 7217.95227
-3.08236263044e-05 7222.02942
-0.000108098658681 7226.10718
0.000232193654708 7230.18311
-0.000792811161482 7234.25903
-0.00057695136176 7238.33374
-0.000156421146981 7242.40906
-0.00094061207342 7246.48376
0.000863633685167 7250.55725
-0.000834633372365 7254.63013
-0.000694422387401 7258.703
0.000205462356185 7262.77466
-0.00026961402556 7266.84631
-0.00104952860555 7270.91797
-0.000749604123654 7274.98779
-0.00110413595907 7279.05823
0.000240651527901 7283.12805
-0.000644531647418 7287.19666
-0.000954016472654 7291.26526
-0.000275802739917 7295.33264
-0.000797161578884 7299.40063
-0.000717502614649 7303.4668
-0.000669767980597 7307.53357
0.000245128410191 7311.59851
-0.00176759700525 7315.66406
-0.000523651185904 7319.729
-0.0003598955644 7323.79272
-0.00168408443393 7327.85645
-0.000228713596571 7331.91895
-0.00119136004361 7335.98206
-0.000277180619562 7340.04333
-0.000781755361742 7344.10522
-9.76892609376e-05 7348.16528
-0.000357533704252 7352.22656
0.000113483034838 7356.28662
-0.000210771078432 7360.34546
-0.00166764994586 7364.4043
-0.00158444122939 7368.46252
-0.000435867519213 7372.52014
0.000241649367846 7376.57715
-0.000724764469788 7380.63354
-0.000949535301565 7384.68933
0.000112462641306 7388.74512
-0.00117427702749 7392.80029
-0.000386168007341 7396.85486
-0.000740634804525 7400.90881
-0.00106378361696 7404.96216
-0.00108132904899 7409.0155
-0.00106687069681 7413.06702
-0.00048578984113 7417.11914
-1.63153403043e-05 7421.17004
0.000536154616015 7425.22095
0.000439624362863 7429.27124
-0.000800197412623 7433.32031
-0.000425631565571 7437.37
9.83441723601e-05 7441.41785
0.0011021236415 7445.46631
-0.00160214269579 7449.51355
-0.000430959347384 7453.56079
-0.000349553581581 7457.6062
-0.000501712333611 7461.65283
0.000218375923995 7465.69824
0.000304165046385 7469.74243
-0.000289333274406 7473.78723
-0.00154210388499 7477.8302
8.6127675132e-05 7481.87378
-0.000469183881242 7485.91614
-0.00187323071759 7489.9585
-0.000987323267656 7493.99963
-0.00115420791055 7498.04077
-0.000643674603426 7502.0813
-0.00129611099635 7506.12122
-0.000398598374266 7510.16052
-0.000619868878612 7514.19922
-0.00126570679417 7518.23792
-0.00105178003847 7522.27478
-3.72288370527e-05 7526.31226
-0.000634772545332 7530.34851
-0.0017469008703 7534.38477
-0.000566879291425 7538.42102
0.0001139390111 7542.45544
-0.00214376774297 7546.48987
9.61640155658e-05 7550.52368
-7.76664106957e-05 7554.5575
-0.000585774697274 7558.59009
-0.00237951606041 7562.62268
-0.00126712154984 7566.65405
-0.00185440318141 7570.68542
-0.0010440677178 7574.7168
-0.000869464740341 7578.74634
-0.00148662311979 7582.77588
-0.00166117089347 7586.8042
-0.000825926916939 7590.83374
-0.00253671857236 7594.86084
-0.000230211431119 7598.88916
-0.00237947265415 7602.91504
-0.00220272972125 7606.94214
-0.00191661122315 7610.96802
-0.00130561164008 7614.99268
-0.00161307706879 7619.01733
-0.00192295720937 7623.04199
-0.00219170590753 7627.06543
-0.00220071093706 7631.08826
-0.00126862420436 7635.11108
-0.000285507742081 7639.13208
-0.00052902344736 7643.15369
-0.00196952091773 7647.17529
-0.000644178114475 7651.19568
-0.00209660527646 7655.21545
-0.000895685998124 7659.23462
-0.00125925841287 7663.25317
-0.00237168346367 7667.27112
-0.000499056107327 7671.28845
-0.000455720797946 7675.30518
-0.000526414576478 7679.32251
-0.00181620974825 7683.33862
-0.00166241030372 7687.35413
-0.000602809750051 7691.36841
-0.000954455080548 7695.38269
-0.00179975220673 7699.39636
-0.00136084712439 7703.41003
-0.000117871964882 7707.42249
-0.00134779776436 7711.43433
-0.00192310897247 7715.44617
-0.00298068110587 7719.4574
-0.00141277244221 7723.46802
-0.000841961417057 7727.47803
-0.00103948465443 7731.48682
-0.00123920585655 7735.49622
-0.00222302078088 7739.50439
-0.00152250206147 7743.51196
-0.00246889861183 7747.51892
-0.000744358062345 7751.52588
-0.00221935800824 7755.53162
-0.000225538358071 7759.53735
-0.000779975642926 7763.54309
-0.000884330240648 7767.54639
0.000177376013313 7771.5509
-0.00196182423491 7775.5542
-0.00179106526068 7779.5575
-0.00236475302973 7783.55896
-0.00211777122413 7787.56104
0.000285260291369 7791.56189
-0.00148766129077 7795.56274
-0.00044628189503 7799.56299
-0.000633762390284 7803.56201
-0.00132836572522 7807.56165
-0.00200490781351 7811.56006
-0.000806766169096 7815.55786
-0.00143365437155 7819.55505
-0.00119685350178 7823.55225
-0.0016133401614 7827.54761
-0.00134640857403 7831.54358
-0.00107645829138 7835.53894
-0.00304954799597 7839.53369
-0.0013635704758 7843.52783
-0.00164819114896 7847.52075
-0.00344990508416 7851.51367
8.4258255151e-05 7855.50598
-0.00245923347844 7859.49768
-0.00178821002606 7863.48877
-0.00131140538728 7867.47986
-0.000916466006435 7871.47034
-0.00282039208139 7875.45959
-0.00248682544553 7879.44885
-0.00136549634247 7883.4375
-0.0029196866089 7887.42493
-0.00131984257102 7891.41235
-0.0011785629235 7895.39917
-0.00251578487664 7899.38538
-0.000653841320774 7903.37158
-0.000865268237874 7907.35718
-0.00224624956582 7911.34094
-0.00210366877959 7915.32532
-0.00211031439473 7919.30847
-0.00356830472311 7923.29224
-0.00382053782251 7927.27417
-0.00112442688042 7931.2561
-0.00252867536564 7935.23682
-0.00192378924659 7939.21753
-0.00315325672049 7943.19824
-0.00233235807961 7947.17773
-0.00289277405101 7951.15723
-0.00154304680076 7955.1355
-0.00284871925554 7959.11377
-0.00282769313868 7963.09082
-0.0037122957659 7967.06787
-0.00269357591826 7971.0437
-0.00346062227687 7975.01953
-0.00268607688872 7978.99536
-0.00234930021108 7982.96936
-0.00194556277485 7986.94397
-0.00358913476885 7990.91736
-0.00170553020875 7994.89014
-0.00116319540762 7998.8623
-0.00188107147618 8002.83447
-0.00208265287715 8006.80542
-0.00075066142859 8010.77637
0.000686682925528 8014.7467
0.000393243578462 8018.71643
-0.00272844050381 8022.68555
-0.0026023052473 8026.65405
-0.00237660503335 8030.62256
-0.00248105159274 8034.58923
-0.00225468383219 8038.55652
-0.00166196221303 8042.52258
-0.000466681720349 8046.48804
-0.0016378491707 8050.4541
-0.00399063131304 8054.41833
-0.00262359403346 8058.38257
-0.00371241116233 8062.34619
-0.00169278852346 8066.30859
-0.00360162227517 8070.271
-0.00310273768022 8074.23279
-0.00140291714307 8078.19458
-0.0022672676825 8082.15515
-0.00117276643514 8086.11572
-0.0035691243774 8090.07507
-0.000626604903678 8094.03381
-0.00132927121197 8097.99194
-0.00319992326336 8101.95068
-0.00222654531812 8105.90759
-0.0012431681278 8109.8645
0.000356553266623 8113.8208
-0.00301159380891 8117.77649
-0.00212356957238 8121.73157
-0.00288968448264 8125.68665
-0.00329718593588 8129.6405
-0.00203426033553 8133.59375
-0.00378762772669 8137.54639
-0.00270087735016 8141.49841
-0.00109732330184 8145.45105
-0.000366715581199 8149.40186
-0.00169020156712 8153.35266
-0.00162050708195 8157.30347
-0.00188276635341 8161.25244
-0.00340478673751 8165.20203
-0.00207718955659 8169.14978
0.000259969943568 8173.09753
-0.00268451300513 8177.04468
-0.00130882513256 8180.99182
-0.00390355884918 8184.93774
-0.00109289499397 8188.88367
-0.00284072549608 8192.82898
3.78600847049e-05 8196.77307
-0.00034517125392 8200.71716
-0.00146694610229 8204.66003
-0.00167198259514 8208.60291
-0.0030943341962 8212.54517
-0.00220866871509 8216.48743
-0.00258045823795 8220.42786
-0.00155735736641 8224.3689
-0.00365338636679 8228.30872
-0.00153236999293 8232.24792
-0.0027127417166 8236.18774
-0.00321011641996 8240.12512
-0.00183437199681 8244.06311
-0.0029444534102 8247.99988
-0.00151780928978 8251.93665
-0.00189318680453 8255.8728
-0.00202349193963 8259.80835
-0.00327398602197 8263.74329
-0.00149703393588 8267.67761
-0.00338019816322 8271.61194
-0.00422883488798 8275.54443
-0.00331737580079 8279.47754
-0.00547484802111 8283.40942
-0.00308126098884 8287.34131
-0.00228431026173 8291.27136
-0.00131413759874 8295.20264
-0.00144439028126 8299.13208
-0.00374731373709 8303.06152
-0.00281718889864 8306.99097
-0.00291042230879 8310.91797
-0.00188876495828 8314.84619
-0.000947513624128 8318.77319
-0.00198810089944 8322.7002
-0.00238611777993 8326.62537
-0.00278767012527 8330.55054
-0.0026242234956 8334.4751
-0.00228398914505 8338.39966
-8.84721973153e-05 8342.32361
-0.00265860572226 8346.24634
-0.00280400895397 8350.16907
-0.00210115074871 8354.09058
-0.00354774087573 8358.01208
-0.00410484577447 8361.93298
-0.0031258377236 8365.85327
-0.00195622260842 8369.77295
-0.00205581240674 8373.69202
-0.00417475657304 8377.61047
-0.00419111968595 8381.52832
-0.00300460079064 8385.44617
-0.00403599042473 8389.36218
-0.00172192159824 8393.27942
-0.00116703231141 8397.19421
-0.0036516188298 8401.11023
-0.00070410734055 8405.0238
-0.00428148326647 8408.9386
-0.00240447199146 8412.85217
-0.00396884411412 8416.76453
-0.00738750319762 8420.67749
-0.00645301712072 8424.58862
-0.00299499298683 8428.49976
-0.00543359512792 8432.41028
-0.000812439620844 8436.32019
-0.00191756429043 8440.22949
-0.0010586471302 8444.13879
-0.0043011938079 8448.04749
-0.00485590832475 8451.95496
-0.000878522160994 8455.86182
-0.00353327080011 8459.76807
-0.00138174387697 8463.67432
-0.00431828934946 8467.57996
-0.00239566449579 8471.48499
-0.00471770980212 8475.38879
-0.00337982188187 8479.2926
-0.000811184637393 8483.19641
-0.00244472415107 8487.09839
-0.00230232925905 8491.00098
-0.00503694812792 8494.90234
-0.00655692523366 8498.8031
-0.000622261719269 8502.70325
-0.00286422179098 8506.60339
-0.00381894315947 8510.50171
-0.00257479723592 8514.40125
-0.0048035733291 8518.29895
-0.000795209032009 8522.19604
-0.00282087120374 8526.09314
-0.00208365101222 8529.98901
-0.0026808142186 8533.8855
-0.00376549539066 8537.78015
-0.00264353517665 8541.6748
-0.000919738378696 8545.56885
-0.0019524989998 8549.46228
-0.00636262519559 8553.35571
-0.00414238429417 8557.24731
-0.00169366069569 8561.13953
-0.00410825107587 8565.03052
-0.00340517711423 8568.92151
-0.00605997929023 8572.81067
-0.00674263624973 8576.70105
-0.00499063946811 8580.5896
-0.00723680211651 8584.47754
-0.00307335152219 8588.36609
-0.00112245499934 8592.25281
-0.00157851173131 8596.13892
-0.00317202204762 8600.02502
-0.00443994050053 8603.91052
-0.00257391133118 8607.79541
-0.00534644526865 8611.67969
-0.00363922772655 8615.56335
-0.00446978403934 8619.44702
-0.00519150084372 8623.32947
-0.00550957056998 8627.21069
-0.00288543915561 8631.09253
-0.00787216940473 8634.97314
-0.00553099172587 8638.85376
-0.00233084361972 8642.73315
-0.00156192713662 8646.61255
-0.00277776480184 8650.49072
-0.00503886742048 8654.3689
-0.00543143574665 8658.24707
-0.000245622135141 8662.1228
-0.000801564640004 8665.99915
-0.00390338154686 8669.87488
-0.00485708307669 8673.75061
-0.0030663660453 8677.62451
-6.32537623675e-05 8681.49841
-0.00328821823106 8685.3717
0.000126756562208 8689.24438
-0.00281372898527 8693.11707
-0.000257610300595 8696.98853
-0.00601977405916 8700.85938
-0.000586290886556 8704.72961
-0.00347270420933 8708.59985
-0.00698937983094 8712.46887
-0.00444425487044 8716.33789
-0.00240240693946 8720.20569
-0.00725263714207 8724.07349
-0.00695954911368 8727.94067
-0.00122381119152 8731.80725
-0.00143695239114 8735.67322
-0.00427044646378 8739.53796
-0.00429919725118 8743.40332
-0.00509629162414 8747.26624
-0.00456790834911 8751.13037
-0.0012024320665 8754.99329
-0.0036998576423 8758.85559
-0.00536598988427 8762.71729
-0.00920407666867 8766.57898
-0.00454774617322 8770.44006
-0.00195556006035 8774.29932
-0.00188808493804 8778.15918
-0.00472992720272 8782.01782
-0.0048102146458 8785.87585
-0.00394056522635 8789.73389
-0.00643033277809 8793.5907
-0.00307302899865 8797.44751
-0.00630458520004 8801.3031
-0.00830455331 8805.1593
-0.00530698385055 8809.01367
-0.00577145213733 8812.86804
-0.00929313148894 8816.7218
-0.00313805226884 8820.57434
-0.00706461550664 8824.42749
-0.00302396788588 8828.27942
-0.00638986690247 8832.13013
-0.00910744053739 8835.98145
-0.0041550615094 8839.83154
-0.00649695007302 8843.68042
-0.00233064701985 8847.53052
-0.00155999918361 8851.37817
-0.00626201940848 8855.22644
-0.00730320150788 8859.07349
-0.00842885416297 8862.92053
-0.00513568067049 8866.76636
-0.00753190509254 8870.61157
-0.000716336446097 8874.4574
-0.0046333174303 8878.30078
-0.0023266116931 8882.14539
-0.00612533719138 8885.98816
-0.00380517843032 8889.83093
-0.00439192934079 8893.67249
-0.0080067798138 8897.51465
-0.00352734705467 8901.35498
-0.00551799708961 8905.19531
-0.007605349565 8909.03503
-0.00696764542294 8912.87415
-0.00382756932509 8916.71326
-0.00509146826226 8920.55054
-0.00200919863613 8924.38843
-0.00856550937079 8928.2251
-0.0067376793377 8932.06116
-0.0110695578582 8935.89661
-0.00991910463613 8939.73206
-0.00961489066699 8943.56628
-0.00597942171408 8947.3999
-0.00695064615729 8951.23352
-0.00327697480627 8955.06592
-0.00520322668194 8958.89832
-0.00157059026155 8962.72949
-0.00439098007828 8966.56067
-0.00627873104545 8970.39063
-0.00498767565606 8974.22058
-0.000538713008946 8978.04993
-0.00659817155222 8981.87866
-0.00373257681086 8985.70618
-0.00284221830192 8989.53369
-0.00424619464645 8993.36121
-0.00278718225732 8997.18689
-0.00448660661475 9001.01257
-0.00422993354891 9004.83704
-0.00585832997721 9008.66211
-0.00474653760125 9012.48596
-0.0058151779943 9016.3092
-0.0122495837608 9020.13184
-0.00326285437749 9023.95386
-0.00875534531659 9027.77588
-0.0114710685583 9031.59668
-0.0084916402623 9035.41687
-0.00926874194049 9039.23645
-0.00164113385531 9043.05603
-0.00405167775772 9046.875
-0.00279453082729 9050.69275
-0.0061580534506 9054.5105
-0.00998897421904 9058.32642
-0.0144726116907 9062.14294
-0.00401331185467 9065.95825
-0.00200055692296 9069.77417
-0.00218319290693 9073.58826
-0.0075626209784 9077.40234
-0.0040450242673 9081.21582
-0.00767198856472 9085.02869
-0.00557809865896 9088.84033
-0.00655461450409 9092.65198
-0.011086316621 9096.46301
-0.000817877011021 9100.27344
-0.0068437592022 9104.08325
-0.00392611369661 9107.89246
-0.00185698299063 9111.70105
-0.00806395424974 9115.50903
-0.0088657430382 9119.31641
-0.00793459101801 9123.12317
-0.0122510096851 9126.92932
-0.00664169748399 9130.73547
-0.00296576127985 9134.53979
-0.00886592349751 9138.34473
-0.000505519868303 9142.14783
-0.00495847986626 9145.95154
-0.00167901041975 9149.75464
-0.00335585650277 9153.55652
8.33257774919e-05 9157.3584
-0.00830634508582 9161.15845
-0.00898100753781 9164.95972
-0.00512264910894 9168.75854
-0.00285830058835 9172.55859
-0.00513732950932 9176.3562
-0.0057424092013 9180.15503
-0.00847867031658 9183.95203
-0.0046026622593 9187.74902
-0.00154529526651 9191.5448
-0.0051104460307 9195.34058
-0.00280190750386 9199.13574
-0.00532029751224 9202.92969
-0.0100743291174 9206.72363
-0.00365288925584 9210.51636
-0.00529057467466 9214.30969
-0.00434135255729 9218.10181
-0.00431905151557 9221.89331
-0.00702699118422 9225.6842
-0.00505889765561 9229.47388
-0.00896954066898 9233.26416
-0.0111542213393 9237.05261
-0.00166137652242 9240.84106
-0.0111640401281 9244.62891
-0.00459058809575 9248.41675
-0.006383886114 9252.20337
-0.00986784641876 9255.98938
-0.0149968589833 9259.77478
-0.0100120034339 9263.55957
-0.00797401272489 9267.34436
-0.00934322908776 9271.12732
-0.00618907013956 9274.91089
-0.010522746679 9278.69324
-0.0190364385245 9282.47559
-0.00545248397031 9286.25671
-0.0049075714362 9290.03723
-0.014666793546 9293.81775
-0.00352566378674 9297.59705
-0.0094472638116 9301.37634
-0.0158046062343 9305.15381
-0.0099957005297 9308.9325
-0.00708485336583 9312.70935
-0.0140132491464 9316.4856
-0.0126137172024 9320.26123
-0.00904995841753 9324.03687
0.000576865598734 9327.8125
-0.0146366413802 9331.5863
-0.0128778195094 9335.36011
-0.00342096231956 9339.13208
-0.00943207180254 9342.90527
-0.0143235159798 9346.67664
-0.00271697505206 9350.448
-0.00912017785276 9354.21814
-0.00653105684072 9357.98889
-0.0137165717507 9361.75842
-0.0136351355866 9365.52673
-0.00606216057535 9369.29504
-0.0203473913444 9373.06274
-0.020687610297 9376.83044
-0.0094926975852 9380.5957
-0.00680145687296 9384.36218
-0.0177560376218 9388.12744
-0.0259612210755 9391.89148
-0.0268701660283 9395.65613
-0.0159075203446 9399.41956
-0.0183665528301 9403.18237
-0.0223657916896 9406.94458
-0.0277219760287 9410.70557
-0.00333006297962 9414.46655
-0.016738034484 9418.22693
-0.0459388790631 9421.98669
-0.0293829857557 9425.74646
-0.0407193274378 9429.50562
-0.0346406514387 9433.26294
-0.021569323851 9437.02026
-0.0292649864152 9440.77698
-0.0236539495759 9444.53369
-0.0206811520736 9448.28918
-0.0072657607746 9452.04468
-0.0214989437666 9455.79834
0.00103881822974 9459.55261
-0.0166551625601 9463.30627
-0.0259923089315 9467.05811
0.000343472199515 9470.81055
-0.0413687861644 9474.56177
-0.0539088933304 9478.31238
-0.0215153433192 9482.06238
-0.0332710567871 9485.81238
-0.0195519893847 9489.56116
-0.0428221220323 9493.30933
-0.0175733816156 9497.05811
-0.014780823527 9500.80505
-0.0227636561745 9504.55139
-0.0260647198811 9508.29773
-0.0127299882463 9512.04346
-0.0311603681663 9515.78735
-0.00964603008244 9519.53186
-0.0129222248619 9523.27515
-0.0209969673325 9527.01843
-0.0186658852446 9530.76172
-0.0202653964968 9534.50195
-0.0354303952183 9538.24341
0.001460889216 9541.98486
-0.0386194377617 9545.72449
-0.0245018418992 9549.4635
-0.0403959144451 9553.20251
-0.00712042818349 9556.94092
-0.0172897793219 9560.67871
-0.0254054810249 9564.41589
0.00477791549589 9568.15125
-0.00925559842729 9571.88721
-0.0243531862809 9575.62256
-0.0198471121239 9579.3573
-0.0234685578869 9583.09021
-0.0226327559108 9586.82373
-0.0131405435786 9590.55664
-0.0394770128697 9594.28955
-0.020739871792 9598.02063
-0.0297485647931 9601.7511
-0.0309023463857 9605.48157
-0.00281130081782 9609.21143
-0.00983794008367 9612.94128
-0.0191093571892 9616.66809
-0.0210638186264 9620.39612
-0.0151533221388 9624.12415
-0.00925351558034 9627.85095
-0.0218637924988 9631.57715
-0.0137338637092 9635.30151
-0.0171075970175 9639.02649
-0.0210605120865 9642.75146
-0.00450137188704 9646.47522
0.0233859656864 9650.19714
-0.00989569572249 9653.92029
-0.0116255858303 9657.6416
-0.0312857367865 9661.36292
-0.0276592611012 9665.08423
-0.0302941604273 9668.80371
-0.0237610885026 9672.52319
-0.0174839928197 9676.24207
-0.031845512931 9679.96094
-0.00946914247338 9683.67737
-0.0284124354626 9687.39441
-0.0255354671462 9691.11084
-0.0172061877378 9694.82666
-0.0126109223122 9698.54248
-0.00973956544263 9702.25586
-0.0200434784548 9705.96985
-0.0229007738187 9709.68323
-0.0271966621528 9713.39661
-0.0151786092875 9717.10754
-0.0206447249458 9720.81909
-0.0232705574344 9724.53064
-0.0195892322665 9728.24097
-0.0202393312525 9731.94946
-0.0264311221632 9735.65918
-0.0303660768387 9739.36768
-0.0199673847751 9743.07556
-0.00886353318722 9746.78284
-0.0163550411472 9750.48828
-0.0386218261485 9754.19495
-0.0331470590536 9757.90039
-0.0194072002529 9761.60522
-0.0131207277421 9765.30884
-0.0254827777337 9769.01245
-0.0188362690739 9772.71606
-0.0263953184841 9776.41846
-0.0209147171388 9780.12024
-0.0207060238179 9783.82019
-0.0182826290235 9787.52136
-0.0212164688952 9791.22131
-0.0209920758607 9794.92065
-0.0297106577859 9798.61877
-0.0401128017611 9802.31689
-0.00419033086013 9806.0144
-0.0103612150469 9809.71191
-0.00553297280401 9813.4082
-0.0121071733108 9817.10266
-0.0253481671464 9820.79773
-0.0228601972494 9824.4928
0.00233216311255 9828.18604
-0.0161277174376 9831.87866
-0.0247139903438 9835.57129
-0.0320708014341 9839.26331
-0.0385097668719 9842.95471
-0.0114308327086 9846.64612
-0.0471231718404 9850.33569
-0.0281187427632 9854.02527
-0.0389326767797 9857.71362
-0.0263616901131 9861.40259
-0.0222307613119 9865.08911
-0.0310440250673 9868.77625
-0.0312619161357 9872.46277
-0.00769140528176 9876.14929
-0.0269620903302 9879.83459
-0.0197567265301 9883.51807
-0.0105442004043 9887.20215
-0.0357921607698 9890.88623
-0.0570136384679 9894.56909
-0.0444222597463 9898.25012
-0.0323147214014 9901.93115
-0.0470129099129 9905.61279
-0.0454694699675 9909.29321
-0.0146119143549 9912.97302
-0.0388661101655 9916.651
-0.0210030168986 9920.3302
-0.0132550780912 9924.00818
-0.0345616368329 9927.68494
-0.0200801368397 9931.36047
-0.0260555081095 9935.03723
-0.0287078310862 9938.71277
-0.0526065227186 9942.3877
-0.0106559458043 9946.0614
-0.0214217447034 9949.7345
-0.0232594178292 9953.40759
-0.0381159468064 9957.08008
-0.0226457078081 9960.75195
-0.0354740770088 9964.422
-0.0378734502845 9968.09265
-0.0460576128403 9971.7627
-0.0391874479533 9975.43152
-0.0425473780533 9979.10095
-0.000452993617553 9982.76733
-0.0466955685256 9986.43494
-0.0634460518349 9990.10193
-0.0317131626765 9993.76831
-0.0440066764634 9997.43286
-0.0345653008581 10001.09802
-0.0141396574735 10004.76257
-0.0223690680659 10008.42651
-0.0408839423836 10012.08923
-0.0359892949841 10015.75134
-0.0152528223129 10019.41284
-0.039846451952 10023.07434
-0.0115984851626 10026.73523
-0.0194024154389 10030.39429
-0.0532489500111 10034.05334
-0.0397529624158 10037.71179
-0.0349061446399 10041.37024
-0.0357974422251 10045.02808
-0.0431382477726 10048.68408
-0.0630684381148 10052.34009
-0.0689989430449 10055.99609
-0.0292002869498 10059.65149
-0.0138529591996 10063.30444
-0.0155994075329 10066.95862
-0.0179239297407 10070.61218
-0.0574662836227 10074.26453
0.00452937589181 10077.91626
-0.0707918557493 10081.56677
-0.0316417843968 10085.21729
-0.0203167210169 10088.8678
-0.0398755325902 10092.51709
-0.0225337223729 10096.16577
-0.0384213214474 10099.81384
-0.0225057429495 10103.4613
-0.0135692700372 10107.10754
-0.0826115428535 10110.75439
-0.0495213659777 10114.39941
-0.0715074403302 10118.04443
-0.0790594282041 10121.68884
-0.0463500975941 10125.33325
-0.0402359021181 10128.97522
0.00406604244198 10132.6178
-0.0212660715782 10136.26038
-0.0485119624029 10139.90112
-0.0223880435002 10143.54187
-0.0331865588275 10147.1814
-0.0185281170732 10150.82153
-0.0690688188754 10154.46045
-0.0741185358322 10158.09937
-0.0690241330649 10161.73523
-0.063850918021 10165.3717
-0.0105152711996 10169.00879
-0.0402722513227 10172.64404
-0.0576640516103 10176.27991
-0.062993838072 10179.91333
-0.052674454914 10183.54675
-0.0412996843321 10187.18018
-0.111475227951 10190.81299
-0.0687446228249 10194.44397
-0.0603198122431 10198.07495
-0.0164214821849 10201.70593
-0.034717639423 10205.33691
-0.089877395757 10208.96606
-0.134887459337 10212.5946
-0.0472164891642 10216.22253
-0.0365162744544 10219.85046
-0.00428333083656 10223.47778
-0.0872233676023 10227.10327
-0.0662704194705 10230.72876
-0.0387800477034 10234.35364
-0.0428057443105 10237.97852
0.00360547133726 10241.60278
-0.10158630116 10245.22461
-0.02689393659 10248.84766
-0.0469946513683 10252.46948
-0.108583333787 10256.09131
-0.0684732979606 10259.71069
-0.0634394953881 10263.3313
0.0078873563362 10266.94946
-0.0967781692072 10270.56885
-0.0443380501771 10274.18823
-0.0305249694747 10277.80396
-0.0318424904145 10281.4209
-0.0850301813192 10285.03784
-0.03558730871 10288.65479
-0.113098689435 10292.26807
-0.117423902072 10295.88135
-0.0851853266577 10299.49707
-0.12205954034 10303.10913
-0.0826157439305 10306.72241
-0.0367540499086 10310.33325
-0.175792809481 10313.94531
-0.108260049776 10317.55493
-0.0841429446069 10321.16577
-0.0944361850661 10324.77417
-0.0766354819768 10328.38257
-0.0393385999165 10331.99097
-0.0662826357829 10335.59937
-0.152310622292 10339.20654
-0.124389843868 10342.81128
-0.112056781376 10346.41724
-0.128435506086 10350.02197
-0.15797527782 10353.62671
-0.131512814237 10357.229
-0.101820716197 10360.83252
-0.12693058424 10364.43481
-0.100430383793 10368.03711
-0.101693518527 10371.6394
-0.0946756619904 10375.23804
-0.0846186756676 10378.83789
-0.126072473875 10382.43774
-0.115797386995 10386.03638
-0.0625217906709 10389.63257
-0.0742083909223 10393.2312
-0.216033208044 10396.82861
