0.0 1883.01102
0.0 1887.64923
27.672299 1892.28699
-18.032402 1896.92459
-14.056362 1901.56158
12.263647 1906.19812
-25.96646 1910.83435
4.317456 1915.47043
38.065201 1920.1059
-14.541055 1924.74091
-5.113366 1929.37561
-44.300938 1934.01001
-25.459837 1938.6441
21.185178 1943.27759
-24.958809 1947.91077
44.498835 1952.54349
-36.868627 1957.17575
34.576499 1961.80786
-8.087875 1966.43951
-1.142736 1971.07071
24.662591 1975.70145
-2.631953 1980.33203
-28.434109 1984.96216
12.753123 1989.59167
-16.031901 1994.22089
22.186891 1998.84979
21.200555 2003.47855
17.720489 2008.10654
7.79265 2012.73422
-24.976521 2017.3616
36.104668 2021.98853
-22.49905 2026.61514
-46.809404 2031.2413
-22.992709 2035.867
-16.040689 2040.4924
0.842718 2045.11734
2.332634 2049.74197
-5.119499 2054.36615
2.333885 2058.99002
-12.068905 2063.61343
-26.974094 2068.23654
26.173271 2072.85919
38.099905 2077.48123
21.702532 2082.10327
20.216865 2086.72485
-46.839472 2091.34583
24.684873 2095.96649
-8.09948 2100.5867
-6.606623 2105.20676
-36.407753 2109.82635
-1.640548 2114.44534
-45.355684 2119.06403
-4.123833 2123.6824
-14.055649 2128.30048
3.822735 2132.91779
6.801636 2137.53494
19.221741 2142.15179
5.311357 2146.76819
1.835743 2151.38412
41.067734 2155.9996
-15.055512 2160.61493
-19.521713 2165.22949
33.113979 2169.84406
43.55329 2174.45801
11.271602 2179.07166
19.218995 2183.68484
59.951876 2188.29773
-3.130186 2192.91031
-22.502731 2197.52228
27.169815 2202.13379
-20.016944 2206.745
39.0914 2211.35574
9.282269 2215.96634
42.559247 2220.57648
31.638104 2225.186
-3.129206 2229.79553
36.60021 2234.4043
4.31929 2239.01276
1.338867 2243.62076
7.793827 2248.22845
8.293736 2252.83569
8.787792 2257.44278
-32.919178 2262.0491
-6.110485 2266.65512
-22.496495 2271.26114
77.33512 2275.86639
-28.46484 2280.47119
-11.57035 2285.07568
21.199928 2289.67972
-40.38299 2294.28345
2.332875 2298.88687
-32.920699 2303.48984
-2.634605 2308.09219
28.661683 2312.6944
-1.14378 2317.29614
-3.62677 2321.89758
-27.469427 2326.49841
-26.971117 2331.09894
32.625244 2335.69901
15.242672 2340.29892
8.786949 2344.89822
13.253853 2349.49707
-11.57545 2354.09561
-32.438215 2358.69385
17.233049 2363.29163
1.835584 2367.88895
1.836609 2372.48581
-37.397578 2377.08237
19.7197 2381.67847
-13.556737 2386.27441
-18.034511 2390.8696
8.294869 2395.46463
21.699458 2400.0592
37.096039 2404.65332
-7.599683 2409.24698
-4.12283 2413.84033
-27.45452 2418.43338
-23.486057 2423.02597
-13.06469 2427.6181
-12.573193 2432.20993
-36.911423 2436.80115
12.760382 2441.39221
-14.056377 2445.98282
11.270645 2450.57297
28.663254 2455.16266
16.737747 2459.75189
4.319294 2464.34082
49.998931 2468.92944
17.729931 2473.51761
-17.532337 2478.10516
39.582371 2482.69272
-4.123867 2487.27951
-8.594898 2491.866
25.672945 2496.45218
2.829248 2501.0379
9.282227 2505.62317
8.787569 2510.20813
0.346086 2514.79279
-23.989811 2519.37668
-13.06311 2523.96057
29.6553 2528.54385
3.821703 2533.12683
-21.011122 2537.7092
-6.605986 2542.29126
-11.572795 2546.87302
13.255869 2551.45432
-19.518868 2556.035
7.298214 2560.61584
-15.550137 2565.19592
22.692213 2569.7757
4.319382 2574.35455
13.254859 2578.93372
-19.515595 2583.51196
14.739742 2588.0899
-36.40264 2592.66754
-15.544724 2597.24487
-12.066901 2601.8219
-24.9775 2606.39832
0.346145 2610.97443
16.730797 2615.54993
-15.049238 2620.12512
-9.087499 2624.69971
-39.386488 2629.27429
55.477012 2633.84827
-5.11763 2638.42194
12.265516 2642.9953
-39.375158 2647.56805
-4.12293 2652.1405
-10.085895 2656.71234
-35.918701 2661.28387
25.177902 2665.8551
-7.599242 2670.42572
15.743145 2674.99573
-2.13687 2679.56604
-16.541934 2684.13574
-5.117276 2688.70483
-23.994285 2693.27362
-9.587185 2697.8418
48.525213 2702.40936
3.823547 2706.97693
5.809803 2711.54419
-28.463871 2716.11053
32.639499 2720.67688
0.346077 2725.24292
-10.582951 2729.80835
16.735188 2734.37347
-3.13019 2738.93799
-2.633175 2743.5025
32.125397 2748.0661
-5.116669 2752.62939
-3.130874 2757.19238
-25.977445 2761.75507
19.212628 2766.31714
38.089699 2770.87891
6.30521 2775.44067
50.499205 2780.00122
-18.032062 2784.56177
-15.545124 2789.12201
11.770676 2793.68164
-31.441984 2798.24097
5.314514 2802.79968
43.058817 2807.3584
6.306686 2811.9162
-18.530537 2816.474
-33.436046 2821.03149
-56.273887 2825.58838
-50.804936 2830.14465
27.660448 2834.70062
2.33175 2839.25629
-35.900607 2843.81134
16.738445 2848.36639
-12.072353 2852.92053
25.186809 2857.47467
-20.518203 2862.0282
-15.052311 2866.58142
-15.053707 2871.13434
10.280983 2875.68634
-7.597578 2880.23804
14.247322 2884.78973
-11.077969 2889.34113
-17.03594 2893.8913
-11.077179 2898.44208
-4.6201 2902.99164
27.160832 2907.54089
27.667122 2912.08984
23.188814 2916.63879
-18.030719 2921.18683
23.683338 2925.73456
4.320233 2930.28198
19.220627 2934.82849
15.74141 2939.37561
-1.144127 2943.92151
-8.096177 2948.46741
-23.492947 2953.01239
-3.130317 2957.55737
15.739546 2962.10175
-42.366107 2966.64581
76.345643 2971.18958
-14.552454 2975.73242
12.767727 2980.27557
27.161523 2984.81812
43.05116 2989.35974
27.658808 2993.90137
-0.150456 2998.44238
-16.04191 3002.9834
25.165916 3007.5235
21.693727 3012.0636
8.29113 3016.60278
21.707425 3021.14197
-11.077179 3025.68054
40.070696 3030.21881
27.168104 3034.75677
-24.487307 3039.29413
41.572249 3043.83118
-45.343888 3048.36761
-47.349499 3052.90375
44.051858 3057.43958
-11.078724 3061.9751
-28.462558 3066.5097
10.277893 3071.04431
-28.457731 3075.578
21.705853 3080.11169
-19.022533 3084.64508
-22.990449 3089.17755
20.708813 3093.71063
14.252022 3098.24219
7.793172 3102.77374
5.808929 3107.30499
-7.103466 3111.83563
68.862338 3116.36597
18.211125 3120.89569
33.108252 3125.42511
44.525083 3129.95422
23.182276 3134.48273
39.062265 3139.01093
-10.078763 3143.53882
-15.54381 3148.0658
-4.123833 3152.59308
-15.053321 3157.11975
35.615915 3161.64581
1.339924 3166.17126
32.634929 3170.69672
-58.263943 3175.22156
-3.625574 3179.74579
-48.342437 3184.27002
-26.968241 3188.79333
7.29772 3193.31665
-1.143684 3197.83936
24.180433 3202.36176
-3.626127 3206.88354
-4.620433 3211.40503
0.842753 3215.92651
24.683541 3220.44647
23.684274 3224.96704
18.724208 3229.48639
-22.991094 3234.00604
-4.62014 3238.52509
24.182341 3243.04352
30.147545 3247.56165
17.725544 3252.07916
16.735042 3256.59668
41.057877 3261.11328
42.064469 3265.62988
-15.544859 3270.14557
2.828516 3274.66156
-29.445195 3279.17664
12.760817 3283.6911
25.678986 3288.20557
19.215254 3292.71942
2.332373 3297.23297
-3.626127 3301.74561
12.76211 3306.25854
10.276589 3310.77026
-9.089268 3315.28229
-20.497795 3319.7937
5.310014 3324.3045
3.821156 3328.815
16.732779 3333.32489
20.207646 3337.83478
61.424135 3342.34406
25.664432 3346.85303
5.310417 3351.36078
26.655302 3355.86914
-2.136751 3360.37659
20.208256 3364.88342
31.619654 3369.39026
69.394505 3373.89648
32.125397 3378.4024
31.632475 3382.90771
7.79541 3387.41272
18.72501 3391.91681
26.161015 3396.4212
18.219731 3400.92468
22.694331 3405.42816
16.235198 3409.93103
15.734098 3414.43329
33.620115 3418.93555
6.305401 3423.43689
27.659377 3427.93793
-8.093989 3432.43866
61.923953 3436.93878
62.400896 3441.4389
72.313137 3445.93842
55.468883 3450.43732
55.961237 3454.93591
19.715714 3459.43359
12.755726 3463.93158
-26.973771 3468.42896
55.459772 3472.92542
11.764926 3477.42218
35.099563 3481.91803
44.537989 3486.41357
17.727797 3490.90881
62.407741 3495.40314
81.780822 3499.89777
32.619172 3504.39148
31.12209 3508.88489
41.566743 3513.37799
-29.942328 3517.87048
47.019472 3522.36267
42.040673 3526.85425
-2.136227 3531.34552
74.325562 3535.83649
69.389202 3540.32684
42.540916 3544.81659
96.158588 3549.30634
2.331649 3553.79517
65.902292 3558.2843
39.562836 3562.77222
38.564922 3567.26013
26.159912 3571.74774
28.645043 3576.23444
68.347273 3580.72113
-15.047191 3585.20721
55.469622 3589.69299
39.556776 3594.17786
70.870564 3598.66302
85.217544 3603.14697
17.225325 3607.63123
53.475628 3612.11456
77.783074 3616.5976
-0.646884 3621.08032
94.208065 3625.56244
94.65073 3630.04456
140.812439 3634.52576
240.633815 3639.00696
653.344293 3643.48663
1243.741035 3647.96722
1610.934281 3652.4469
1677.261785 3656.92596
1361.280701 3661.40472
953.612141 3665.88287
649.850609 3670.36102
294.019786 3674.83826
195.228459 3679.31549
95.619423 3683.79181
70.325404 3688.26843
72.823978 3692.74384
79.80373 3697.21924
58.432356 3701.69403
61.900427 3706.16821
79.26878 3710.6427
82.224507 3715.11566
49.480942 3719.58923
91.670341 3724.06158
61.411796 3728.53424
80.781195 3733.00568
36.595254 3737.47711
58.442227 3741.94794
-10.573379 3746.41846
81.271034 3750.88898
9.281408 3755.35828
53.969457 3759.82758
18.710451 3764.29596
38.075538 3768.76465
54.451672 3773.23242
30.127685 3777.69989
56.970604 3782.16675
22.685834 3786.6333
5.805655 3791.09985
68.36211 3795.56519
38.068804 3800.03052
81.722056 3804.49524
77.286236 3808.95996
66.836798 3813.42377
43.551814 3817.88727
112.021187 3822.35046
63.383059 3826.81274
80.247719 3831.27533
27.657132 3835.73669
3.324826 3840.19836
54.951317 3844.65912
-1.639686 3849.11957
26.6562 3853.57971
38.57264 3858.03925
68.860729 3862.49847
48.48835 3866.95679
35.096738 3871.41541
3.820094 3875.87311
33.605484 3880.33051
14.247307 3884.78729
29.627478 3889.24408
22.689776 3893.69995
-6.603843 3898.15552
57.440924 3902.61078
48.510832 3907.06543
80.29998 3911.52008
42.532325 3915.97351
59.93423 3920.42725
51.490852 3924.87976
24.17472 3929.33289
30.635798 3933.78479
-17.540379 3938.23639
25.170933 3942.68768
11.270171 3947.13837
58.452977 3951.58905
8.786085 3956.03851
-11.572268 3960.48798
44.038208 3964.93683
33.621538 3969.38568
43.038439 3973.83392
0.346039 3978.28156
14.246962 3982.72888
8.788538 3987.1756
13.7529 3991.62201
44.532722 3996.06781
60.903036 4000.51361
52.478157 4004.95819
31.625656 4009.40308
86.240942 4013.84705
45.52296 4018.29102
33.601524 4022.73438
72.831964 4027.17682
162.630027 4031.61926
612.002335 4036.0611
1784.364458 4040.50293
3601.081951 4044.94385
4564.852734 4049.38446
4152.849469 4053.82477
2635.840034 4058.26447
1442.632854 4062.70386
689.510527 4067.14233
435.26115 4071.58081
511.409878 4076.01868
544.452957 4080.45624
495.661156 4084.89319
340.620957 4089.33014
217.098275 4093.76617
84.676448 4098.2019
75.300752 4102.63702
63.879126 4107.07184
76.799761 4111.50635
42.532549 4115.94025
4.814417 4120.37384
43.528795 4124.80682
17.722716 4129.23981
35.588813 4133.67126
51.977779 4138.10333
51.479549 4142.53479
45.022678 4146.96533
16.231086 4151.39587
0.345965 4155.82581
37.082561 4160.25543
11.269504 4164.68414
31.128778 4169.11285
53.968864 4173.54065
32.598872 4177.96875
63.915813 4182.39594
48.995292 4186.82281
69.361455 4191.24908
60.920766 4195.67505
23.680535 4200.10071
33.11314 4204.52545
18.715653 4208.9502
-8.095084 4213.37372
63.390532 4217.79785
12.757823 4222.22107
32.607629 4226.64368
-4.120122 4231.06628
18.72146 4235.48798
1.835449 4239.90967
52.96757 4244.33044
13.256069 4248.75092
29.621037 4253.17078
59.931426 4257.59064
79.280537 4262.00989
52.46237 4266.42853
67.844673 4270.84686
44.021616 4275.26459
32.610781 4279.68201
29.142002 4284.09912
10.778439 4288.51563
59.915241 4292.93121
37.579772 4297.34711
33.115524 4301.76239
4.813619 4306.17706
18.21925 4310.59113
9.282168 4315.00488
52.495298 4319.41833
38.072836 4323.83087
48.00357 4328.24341
70.820345 4332.65533
68.792614 4337.06726
211.005966 4341.47827
593.371872 4345.88867
2115.631752 4350.29877
5583.84711 4354.70825
8332.293516 4359.11804
9048.283755 4363.52661
6711.64774 4367.93518
4127.897766 4372.34283
2421.880881 4376.75049
1292.544935 4381.15723
552.528307 4385.56396
247.608663 4389.9704
176.884239 4394.37561
95.141716 4398.78113
73.294187 4403.18573
68.334065 4407.59033
68.362246 4411.99341
43.047522 4416.39709
31.616063 4420.79956
36.574904 4425.20264
61.902513 4429.6051
-28.450031 4434.00604
34.601047 4438.40759
41.048881 4442.80762
24.182139 4447.20825
-11.571756 4451.60767
54.962443 4456.00739
74.828552 4460.40558
47.521669 4464.80438
67.367374 4469.20258
82.251735 4473.59955
44.533612 4477.99713
78.816818 4482.39319
35.092574 4486.78955
58.438278 4491.185
89.684212 4495.58014
46.997815 4499.97498
23.185481 4504.36951
87.244373 4508.76343
50.0026 4513.15674
13.258018 4517.54974
60.915866 4521.94183
63.877918 4526.33392
-36.391297 4530.7251
37.080372 4535.11688
20.700196 4539.50684
21.192205 4543.8974
9.776363 4548.28735
61.423998 4552.67639
26.168837 4557.06543
40.057985 4561.45325
12.260707 4565.84137
50.990224 4570.22858
48.006267 4574.61578
35.593281 4579.00208
41.057321 4583.38867
-4.123035 4587.77405
95.173916 4592.15912
17.723328 4596.54388
28.156078 4600.92773
-21.003695 4605.31189
30.606582 4609.69513
25.161683 4614.07806
3.323819 4618.46008
73.316718 4622.84241
15.239583 4627.22351
-5.610304 4631.60461
85.719532 4635.98541
35.585056 4640.3653
81.271448 4644.74518
25.664214 4649.12384
70.857829 4653.50281
57.942653 4657.88086
41.547784 4662.25891
111.057674 4666.63605
39.060158 4671.01318
86.190762 4675.39001
86.71513 4679.76563
17.218651 4684.14124
60.921797 4688.51593
59.419233 4692.89063
65.882502 4697.2644
39.561437 4701.63849
38.569252 4706.01135
37.585801 4710.38422
13.25249 4714.75677
73.318978 4719.12811
38.06835 4723.50006
79.766273 4727.87048
77.753021 4732.24121
96.6409 4736.61072
81.263495 4740.98053
59.402613 4745.34943
44.53474 4749.71802
54.95813 4754.0863
96.139434 4758.45367
38.062225 4762.82104
41.040737 4767.1875
71.796913 4771.55426
93.640648 4775.91949
59.395138 4780.28503
114.467976 4784.64966
126.360378 4789.01428
135.219924 4793.3786
159.090198 4797.7417
153.51153 4802.1051
196.645126 4806.46698
207.973674 4810.82947
313.799227 4815.19073
396.513772 4819.552
489.013079 4823.91266
625.257085 4828.27301
834.880569 4832.63306
963.747196 4836.99188
1230.08662 4841.35101
1446.639531 4845.70923
1702.52684 4850.06744
1981.736881 4854.42413
2311.481579 4858.78174
2642.390129 4863.13782
2868.416908 4867.4939
2958.812457 4871.84998
3055.012131 4876.20453
2977.201987 4880.55939
2901.826206 4884.91333
2755.001519 4889.26727
2620.019222 4893.6203
2441.421886 4897.97302
2251.558672 4902.32513
2177.253195 4906.67755
2204.412273 4911.02905
2168.570923 4915.37964
2054.908284 4919.73022
1949.313898 4924.0799
1861.129017 4928.42957
1743.282156 4932.77832
1601.381684 4937.12738
1539.490791 4941.47491
1491.693047 4945.82275
1384.880394 4950.17029
1306.243733 4954.5166
1269.341511 4958.86292
1179.993197 4963.20831
1141.932976 4967.55402
1098.070076 4971.8985
999.383835 4976.24298
952.699352 4980.58655
910.185352 4984.93042
853.425306 4989.27368
731.008228 4993.61572
720.664814 4997.95807
663.506386 5002.29919
552.286528 5006.64063
551.407326 5010.98083
503.852448 5015.32104
460.939228 5019.66064
426.978615 5023.99994
359.784356 5028.33893
352.5317 5032.677
335.601782 5037.01477
331.87117 5041.35193
276.33598 5045.68909
215.425393 5050.02502
223.901081 5054.36127
213.105507 5058.69629
195.262451 5063.03162
183.311912 5067.36603
119.312414 5071.69983
169.376094 5076.03363
128.831886 5080.36621
158.548262 5084.6994
117.908962 5089.03107
163.035553 5093.36304
100.539643 5097.69379
163.042358 5102.02484
169.515541 5106.35529
95.085982 5110.68481
107.998129 5115.01434
135.341705 5119.34265
114.988601 5123.67126
116.959232 5127.99927
110.487414 5132.32605
122.408829 5136.65344
126.344679 5140.97961
85.68057 5145.30579
81.240936 5149.63135
62.403917 5153.95691
71.809424 5158.28064
47.991318 5162.60498
81.241619 5166.92871
88.18927 5171.25183
122.450074 5175.57373
87.681921 5179.89624
86.692272 5184.21753
106.077599 5188.53943
112.505688 5192.86072
103.063106 5197.18018
55.952124 5201.50024
89.180652 5205.81909
108.067925 5210.13855
54.953956 5214.45679
46.99191 5218.77502
35.585625 5223.09204
59.418234 5227.40906
123.920605 5231.72546
5.309166 5236.04187
74.807085 5240.35767
83.712239 5244.67224
68.839981 5248.98682
68.837401 5253.30078
22.676029 5257.61475
32.605159 5261.92749
63.386397 5266.24023
93.643006 5270.55237
115.482444 5274.86389
84.194694 5279.17542
82.747494 5283.48572
135.336025 5287.79663
102.056173 5292.10571
111.002457 5296.41541
146.234772 5300.72388
155.140755 5305.03235
157.113697 5309.34082
151.592665 5313.64746
159.029099 5317.95532
206.57309 5322.26135
344.487818 5326.56738
502.871135 5330.8728
597.736653 5335.17822
637.561177 5339.48242
610.9902 5343.78662
566.353138 5348.09082
592.02335 5352.39319
651.589943 5356.69617
705.50433 5360.99792
841.953839 5365.29968
1067.546083 5369.60083
1384.598263 5373.90137
1697.360924 5378.2019
2020.188912 5382.50183
2285.674908 5386.80115
2708.238689 5391.09985
3227.268832 5395.39795
4172.895882 5399.69543
5537.050388 5403.99292
7554.938118 5408.28979
10196.890926 5412.58606
12647.397419 5416.88171
14003.618454 5421.17737
13917.143133 5425.47302
13248.83316 5429.76685
12741.308033 5434.06128
12297.316407 5438.35388
12176.7393 5442.64771
11814.030894 5446.9397
12862.44284 5451.2323
18626.452175 5455.52307
24549.132919 5459.81506
27925.87204 5464.10583
24132.507292 5468.39539
18357.432941 5472.68555
15348.975349 5476.97449
13534.50811 5481.26282
11595.670685 5485.55054
9707.799465 5489.83887
8205.197056 5494.12598
6822.017412 5498.41309
5907.281966 5502.69958
5231.35371 5506.98486
4604.320465 5511.27075
4021.6718 5515.55481
3494.935737 5519.83948
3114.277508 5524.12292
2731.798213 5528.40698
2468.029041 5532.6886
2171.919508 5536.97205
1917.67284 5541.25366
1678.494763 5545.53467
1471.153289 5549.81628
1280.453865 5554.09607
1116.123369 5558.37646
956.561263 5562.65564
893.752812 5566.93481
816.391003 5571.21338
685.808521 5575.49133
655.899791 5579.76929
595.47197 5584.04602
530.023957 5588.32275
560.60461 5592.59888
464.852513 5596.87439
429.913723 5601.14929
360.578514 5605.42419
392.462006 5609.69788
405.739639 5613.97156
307.294925 5618.24524
337.601921 5622.5177
312.93145 5626.79016
352.488678 5631.0614
344.027752 5635.33264
299.461338 5639.60327
275.335792 5643.87329
332.848549 5648.14331
245.539902 5652.41272
239.148248 5656.68213
250.722667 5660.94971
253.127361 5665.2179
303.088356 5669.48425
223.921463 5673.75183
245.132145 5678.01819
244.253761 5682.28394
224.761082 5686.54846
270.92437 5690.81421
214.951721 5695.07874
200.139023 5699.34265
206.054081 5703.60596
172.94268 5707.86865
169.466335 5712.13074
165.505165 5716.39282
154.14362 5720.6543
150.607166 5724.91516
142.218715 5729.17603
106.982766 5733.43567
153.074568 5737.69531
147.621832 5741.95435
199.196961 5746.21277
201.137333 5750.47119
233.871074 5754.72839
333.60733 5758.9856
1024.339421 5763.24158
2165.331933 5767.49817
2930.462646 5771.75293
2832.399643 5776.0083
2056.850542 5780.26306
2282.120926 5784.51721
3059.614941 5788.77136
3616.93673 5793.02429
3607.679754 5797.27661
3010.358188 5801.52832
2786.493358 5805.78064
2587.757401 5810.03113
2425.410157 5814.28223
2326.667305 5818.53271
2361.795105 5822.78198
2510.510246 5827.03125
2521.652273 5831.2793
2609.299583 5835.52795
2577.138794 5839.77539
2651.757664 5844.02283
2539.219811 5848.26965
2490.144817 5852.51587
2445.514967 5856.76208
2458.256538 5861.00647
2706.230871 5865.25208
3469.687664 5869.49524
4126.530182 5873.73962
4307.30513 5877.98218
3611.345131 5882.22534
3081.345486 5886.46729
2578.255425 5890.70984
2219.440954 5894.95117
2075.727384 5899.19128
1902.158562 5903.43201
1865.222385 5907.67151
1906.304386 5911.91101
1989.570183 5916.1499
2191.591324 5920.38818
2693.283258 5924.62524
3209.563797 5928.86292
3610.261039 5933.10059
3512.443268 5937.33582
3094.111651 5941.57227
2731.263847 5945.8075
2236.576983 5950.04272
2029.588684 5954.27673
1841.73246 5958.51074
1681.110481 5962.74353
1547.624559 5966.97632
1471.228759 5971.20911
1406.737362 5975.44067
1428.493595 5979.67224
1697.495446 5983.9032
1895.757511 5988.13354
2206.462479 5992.36328
2319.972229 5996.59241
2335.369682 6000.82153
2141.92102 6005.05005
1989.35067 6009.27795
1772.189686 6013.50525
1568.185474 6017.73254
1367.073149 6021.95862
1210.194288 6026.18408
1090.237381 6030.40955
1048.733372 6034.6344
1041.97731 6038.85925
1009.720402 6043.0835
991.754333 6047.30652
1076.508553 6051.52893
1061.854126 6055.75195
1154.764099 6059.97375
1186.241293 6064.19495
1390.37495 6068.41553
1589.909844 6072.63672
1755.014015 6076.85608
2033.606792 6081.07605
2531.379608 6085.2948
3092.818659 6089.51294
4168.854301 6093.73108
5692.573975 6097.948
9057.186821 6102.16553
15596.417156 6106.38123
23848.335759 6110.59753
30094.977211 6114.81262
30689.248345 6119.02832
26646.006634 6123.24219
22311.474909 6127.45605
19548.906372 6131.66931
17533.318348 6135.88196
15927.432983 6140.0946
14225.663397 6144.30664
12386.400551 6148.51807
10704.277405 6152.72827
8878.122246 6156.93909
7353.885143 6161.14929
6149.336831 6165.35889
5152.623684 6169.56787
4336.319588 6173.77563
3699.84041 6177.9834
3185.512073 6182.19055
2808.571236 6186.39832
2426.680123 6190.60364
2283.59774 6194.81018
2009.094039 6199.01611
1987.296657 6203.22083
2056.55307 6207.42493
1980.495362 6211.62842
1952.662293 6215.83191
1977.543156 6220.03418
1904.600738 6224.23706
1989.267496 6228.43872
2134.210705 6232.64038
2146.721743 6236.84143
2265.104588 6241.04126
2217.487602 6245.2417
2252.009044 6249.44031
2251.122858 6253.64014
2303.116745 6257.83752
2289.49266 6262.03552
2337.98595 6266.2323
2351.664226 6270.42969
2271.769005 6274.62585
2200.980663 6278.82141
2176.33604 6283.01697
2118.962757 6287.2113
2142.496338 6291.40625
2184.047196 6295.59998
2458.429667 6299.79309
2960.54564 6303.9856
3397.250233 6308.1781
3731.014339 6312.37
3456.60741 6316.56067
2875.018253 6320.75195
2341.382696 6324.94202
1863.128162 6329.13208
1546.833057 6333.32092
1264.27713 6337.50977
1036.574072 6341.69739
870.933007 6345.88562
753.313976 6350.07263
612.703236 6354.25964
521.363048 6358.44543
475.954034 6362.63123
455.506065 6366.81641
433.676921 6371.00037
431.092575 6375.18494
402.335155 6379.36829
335.999889 6383.55164
384.125 6387.73438
301.474379 6391.9165
279.226198 6396.09863
328.71159 6400.27893
281.75983 6404.45984
282.131302 6408.63953
289.775421 6412.81921
304.540997 6416.99829
261.352758 6421.17676
300.095585 6425.35461
309.549011 6429.53247
320.326954 6433.70972
324.271267 6437.88635
332.75309 6442.06177
301.484241 6446.23718
335.107806 6450.4126
283.198353 6454.58618
322.94548 6458.76099
329.81837 6462.93396
314.96756 6467.10693
279.810135 6471.27991
269.354475 6475.45166
326.821553 6479.62341
296.562925 6483.79333
282.129277 6487.96448
374.701984 6492.13379
426.864713 6496.3031
611.700229 6500.4718
814.799633 6504.63989
905.238949 6508.80859
837.123386 6512.97546
737.817194 6517.14233
637.114508 6521.30859
616.072815 6525.47485
634.843292 6529.63928
585.988207 6533.80432
528.890646 6537.96814
506.388584 6542.13196
420.039074 6546.29578
337.097156 6550.45837
383.643905 6554.62036
338.095898 6558.78174
330.698086 6562.94312
322.300487 6567.10327
241.177859 6571.26404
300.938522 6575.42358
276.757172 6579.58252
322.462044 6583.74084
237.688315 6587.89917
271.313834 6592.05688
208.973174 6596.21338
244.685902 6600.37048
164.466888 6604.52637
268.527107 6608.68164
266.491543 6612.83691
266.412537 6616.99158
431.596351 6621.14502
501.308735 6625.29846
521.450506 6629.45129
498.020759 6633.60413
440.312229 6637.75635
376.256577 6641.90674
318.863205 6646.05835
292.60472 6650.20813
296.635704 6654.35791
262.524517 6658.50769
231.934384 6662.65625
230.808297 6666.8042
162.43099 6670.95215
195.149039 6675.09949
149.636688 6679.24622
172.394549 6683.39233
175.372553 6687.53784
186.824021 6691.68335
158.562783 6695.82825
80.69544 6699.97192
163.517239 6704.1156
145.693257 6708.25867
183.418884 6712.40173
134.832664 6716.54358
147.705719 6720.68481
172.45634 6724.82605
124.338598 6728.96667
189.805839 6733.10669
122.887127 6737.24609
100.0324 6741.38489
146.726803 6745.52307
73.775272 6749.66064
129.782092 6753.79822
80.724831 6757.93579
80.725374 6762.07153
10.26911 6766.20789
126.357204 6770.34241
105.520699 6774.47754
153.724236 6778.61206
105.995986 6782.74597
109.471407 6786.87866
132.248978 6791.01135
120.394913 6795.14404
102.015022 6799.27551
166.515262 6803.40698
167.95798 6807.53723
157.489896 6811.66748
147.159645 6815.79712
120.88139 6819.92615
151.165458 6824.05457
72.279806 6828.18298
87.139591 6832.31018
158.584076 6836.43738
88.652208 6840.56335
95.607145 6844.68994
174.96777 6848.81531
137.748752 6852.93945
142.638201 6857.06482
180.359142 6861.18774
223.96389 6865.31128
255.892967 6869.43481
336.095599 6873.55713
380.945944 6877.67883
423.046539 6881.79932
419.212543 6885.92041
327.162964 6890.04089
312.422123 6894.16016
250.097817 6898.27881
243.252353 6902.39868
188.72798 6906.51611
170.996082 6910.63354
64.325372 6914.75098
144.73328 6918.86719
117.467628 6922.9834
144.275376 6927.099
185.768722 6931.2146
270.986992 6935.32837
286.161535 6939.44214
267.928684 6943.55652
221.517136 6947.66846
171.387306 6951.78101
143.645381 6955.89294
126.848667 6960.00366
114.437081 6964.11438
100.548875 6968.2251
82.726067 6972.33459
80.738092 6976.44409
45.002881 6980.55298
73.810709 6984.66064
51.472612 6988.76831
84.730149 6992.87537
67.837534 6996.98181
82.27228 7001.08826
56.931478 7005.19348
79.27706 7009.2981
27.647367 7013.40271
57.924305 7017.50732
53.465832 7021.61011
85.230007 7025.7135
65.851458 7029.81567
55.921875 7033.91724
97.09948 7038.0188
173.422039 7042.11914
208.578609 7046.21948
217.887816 7050.31921
272.32926 7054.41895
355.318379 7058.51746
517.615253 7062.61536
678.941753 7066.71265
778.953602 7070.81055
804.968778 7074.90662
828.776073 7079.0033
844.083807 7083.09814
975.051495 7087.19299
1058.963089 7091.28784
978.844773 7095.38147
852.206554 7099.4751
667.583303 7103.5675
550.642982 7107.66052
557.078125 7111.75171
654.275101 7115.8429
755.348227 7119.93347
847.378159 7124.02405
837.875145 7128.11401
637.530426 7132.20276
534.413338 7136.2915
430.994415 7140.37964
295.005565 7144.46777
246.670513 7148.55408
193.201546 7152.64099
149.195896 7156.72668
118.396866 7160.81177
118.939087 7164.89746
40.054276 7168.98132
108.058693 7173.06519
67.355589 7177.14844
15.734096 7181.23108
107.088543 7185.31372
47.519257 7189.39514
49.004944 7193.47595
66.389345 7197.55676
55.966654 7201.63696
49.51394 7205.71716
30.145893 7209.79614
11.26964 7213.87451
13.748048 7217.95227
50.498638 7222.02942
21.693775 7226.10718
50.988071 7230.18311
1.339316 7234.25903
30.640207 7238.33374
16.728821 7242.40906
-21.003474 7246.48376
40.544647 7250.55725
6.305349 7254.63013
6.304867 7258.703
46.518435 7262.77466
16.233413 7266.84631
-12.068056 7270.91797
41.573307 7274.98779
-22.494619 7279.05823
40.558159 7283.12805
18.719606 7287.19666
-26.959938 7291.26526
25.668464 7295.33264
0.842625 7299.40063
-7.101316 7303.4668
21.2032 7307.53357
27.647601 7311.59851
-33.922596 7315.66406
24.678524 7319.729
29.146053 7323.79272
-36.403431 7327.85645
1.835291 7331.91895
-5.116894 7335.98206
12.261056 7340.04333
-9.583941 7344.10522
21.693592 7348.16528
8.786071 7352.22656
29.139187 7356.28662
16.729513 7360.34546
15.748367 7364.4043
-18.527277 7368.46252
24.180844 7372.52014
32.612844 7376.57715
2.828825 7380.63354
6.305401 7384.68933
-4.120808 7388.74512
-13.558456 7392.80029
12.758442 7396.85486
8.787853 7400.90881
31.641472 7404.96216
-4.123243 7409.0155
6.802425 7413.06702
17.228097 7417.11914
22.685699 7421.17004
34.097425 7425.22095
20.694796 7429.27124
18.224488 7433.32031
-3.625287 7437.37
64.902325 7441.41785
52.455317 7445.46631
4.816974 7449.51355
-4.121682 7453.56079
27.159362 7457.6062
-13.057203 7461.65283
19.704226 7465.69824
8.78298 7469.74243
-1.143294 7473.78723
-19.51923 7477.8302
50.992378 7481.87378
36.598622 7485.91614
-5.118237 7489.9585
-28.448218 7493.99963
-18.0258 7498.04077
26.169281 7502.0813
-12.068532 7506.12122
35.10679 7510.16052
32.626478 7514.19922
-28.451472 7518.23792
31.63891 7522.27478
14.741446 7526.31226
29.149145 7530.34851
2.829979 7534.38477
33.121964 7538.42102
24.174106 7542.45544
-17.039429 7546.48987
33.112035 7550.52368
48.512339 7554.5575
17.228233 7558.59009
-25.48428 7562.62268
-1.143612 7566.65405
-15.547232 7570.68542
22.19862 7574.7168
-6.604814 7578.74634
-11.075714 7582.77588
-23.489424 7586.8042
20.209831 7590.83374
-45.34671 7594.86084
23.184307 7598.88916
-20.019523 7602.91504
-13.561752 7606.94214
-12.566967 7610.96802
0.346132 7614.99268
-38.380218 7619.01733
-7.104156 7623.04199
-41.367226 7627.06543
-10.581559 7631.08826
-3.626402 7635.11108
15.239583 7639.13208
32.623585 7643.15369
-32.427903 7647.17529
8.786591 7651.19568
-14.057602 7655.21545
5.807846 7659.23462
26.670628 7663.25317
-6.60815 7667.27112
18.716895 7671.28845
33.615847 7675.30518
-2.136156 7679.32251
-8.096725 7683.33862
10.279896 7687.35413
30.637485 7691.36841
-1.143661 7695.38269
-14.551964 7699.39636
2.829136 7703.41003
-3.128469 7707.42249
-43.336805 7711.43433
-14.055783 7715.44617
-20.021706 7719.4574
-21.996067 7723.46802
17.22896 7727.47803
4.318367 7731.48682
3.821819 7735.49622
-4.124218 7739.50439
1.339305 7743.51196
-16.044494 7747.51892
3.82128 7751.52588
1.836319 7755.53162
5.806193 7759.53735
-8.589551 7763.54309
-2.632818 7767.54639
43.044113 7771.5509
22.700436 7775.5542
29.157913 7779.5575
-1.143882 7783.55896
7.300342 7787.56104
31.620719 7791.56189
-6.605595 7795.56274
28.151557 7799.56299
33.616985 7803.56201
-9.584238 7807.56165
-12.565504 7811.56006
14.745199 7815.55786
27.166719 7819.55505
0.34608 7823.55225
14.252397 7827.54761
-2.13649 7831.54358
15.242929 7835.53894
-24.488486 7839.53369
10.774639 7843.52783
9.781975 7847.52075
-14.060665 7851.51367
42.549032 7855.50598
-34.909623 7859.49768
2.332651 7863.48877
20.707409 7867.47986
19.711845 7871.47034
-5.614666 7875.45959
30.155888 7879.44885
3.821963 7883.4375
-14.554664 7887.42493
21.204052 7891.41235
12.263437 7895.39917
-15.049637 7899.38538
33.119858 7903.37158
0.842755 7907.35718
19.222096 7911.34094
-27.955205 7915.32532
19.718055 7919.30847
-17.040432 7923.29224
-28.961823 7927.27417
78.347943 7931.2561
-31.433461 7935.23682
-0.15058 7939.21753
15.251617 7943.19824
-13.062004 7947.17773
10.778622 7951.15723
11.271357 7955.1355
-14.55381 7959.11377
-8.594315 7963.09082
6.308613 7967.06787
4.319806 7971.0437
31.156417 7975.01953
-37.39075 7978.99536
4.319366 7982.96936
-14.549857 7986.94397
-30.944389 7990.91736
7.795015 7994.89014
24.679089 7998.8623
-23.48513 8002.83447
-1.143881 8006.80542
18.220617 8010.77637
37.08006 8014.7467
59.93119 8018.71643
-1.143932 8022.68555
-23.985745 8026.65405
-2.63364 8030.62256
-23.984932 8034.58923
-18.522842 8038.55652
2.332261 8042.52258
32.620825 8046.48804
5.808424 8050.4541
-20.020687 8054.41833
11.770779 8058.38257
-16.045857 8062.34619
-0.64709 8066.30859
-5.118057 8070.271
-33.421296 8074.23279
34.118602 8078.19458
1.835827 8082.15515
20.20867 8086.11572
5.314148 8090.07507
31.131935 8094.03381
-14.54717 8097.99194
-30.442573 8101.95068
0.346273 8105.90759
37.594526 8109.8645
54.467424 8113.8208
3.326462 8117.77649
12.762085 8121.73157
3.326214 8125.68665
-0.150345 8129.6405
10.77528 8133.59375
8.792045 8137.54639
-12.565263 8141.49841
0.345772 8145.45105
52.489247 8149.40186
28.158602 8153.35266
10.773914 8157.30347
8.788088 8161.25244
-11.077362 8165.20203
17.232163 8169.14978
45.031031 8173.09753
21.208775 8177.04468
-0.647009 8180.99182
-10.085163 8184.93774
37.592482 8188.88367
13.757447 8192.82898
17.720597 8196.77307
31.625922 8200.71716
39.582568 8204.66003
19.713679 8208.60291
-13.559012 8212.54517
-24.973916 8216.48743
-4.12331 8220.42786
12.263605 8224.3689
-26.470892 8228.30872
26.169726 8232.24792
1.836113 8236.18774
-7.103554 8240.12512
-0.646929 8244.06311
-10.082288 8247.99988
13.256428 8251.93665
8.291269 8255.8728
41.573879 8259.80835
29.657184 8263.74329
11.766453 8267.67761
4.816456 8271.61194
18.729439 8275.54443
0.346183 8279.47754
-37.901419 8283.40942
-23.488237 8287.34131
-0.150572 8291.27136
21.201679 8295.20264
18.718929 8299.13208
21.708668 8303.06152
16.240147 8306.99097
15.246944 8310.91797
9.284284 8314.84619
38.08712 8318.77319
13.754065 8322.7002
2.33236 8326.62537
-10.081875 8330.55054
8.788759 8334.4751
13.754627 8338.39966
23.678936 8342.32361
18.226189 8346.24634
-15.543286 8350.16907
18.224179 8354.09058
-39.374295 8358.01208
-35.406801 8361.93298
7.299263 8365.85327
12.760489 8369.77295
-1.143566 8373.69202
-5.117542 8377.61047
-15.546699 8381.52832
-8.095902 8385.44617
-34.412827 8389.36218
17.229256 8393.27942
20.703866 8397.19421
12.267391 8401.11023
17.722446 8405.0238
-27.463566 8408.9386
15.741414 8412.85217
-6.110485 8416.76453
-40.889785 8420.67749
-26.977665 8424.58862
-0.647026 8428.49976
-27.965759 8432.41028
42.059482 8436.32019
30.640986 8440.22949
36.099948 8444.13879
-23.987911 8448.04749
-5.61449 8451.95496
13.254166 8455.86182
13.756958 8459.76807
-7.100221 8463.67432
-22.497774 8467.57996
-2.136606 8471.48499
-12.070919 8475.38879
5.312797 8479.2926
16.233277 8483.19641
38.59236 8487.09839
32.62925 8491.00098
-4.124466 8494.90234
-59.744875 8498.8031
2.828174 8502.70325
-1.640064 8506.60339
-9.08942 8510.50171
21.204773 8514.40125
-37.889028 8518.29895
14.743601 8522.19604
13.755014 8526.09314
-3.625819 8529.98901
29.650011 8533.8855
-2.633599 8537.78015
39.089543 8541.6748
27.655064 8545.56885
16.732357 8549.46228
-22.007012 8553.35571
9.286534 8557.24731
14.745459 8561.13953
-20.509811 8565.03052
17.232902 8568.92151
-7.105423 8572.81067
-35.912769 8576.70105
-16.539829 8580.5896
-31.445717 8584.47754
14.251645 8588.36609
25.172499 8592.25281
10.772593 8596.13892
30.645142 8600.02502
-13.558895 8603.91052
6.304785 8607.79541
-25.97485 8611.67969
-9.088515 8615.56335
-14.551964 8619.44702
-1.144123 8623.32947
-19.520027 8627.21069
-1.639982 8631.09253
-40.88192 8634.97314
-16.540247 8638.85376
10.276888 8642.73315
-0.64696 8646.61255
10.277766 8650.49072
6.306682 8654.3689
-1.64067 8658.24707
39.074784 8662.1228
50.50334 8665.99915
42.075903 8669.87488
4.31992 8673.75061
4.81515 8677.62451
27.651329 8681.49841
-5.61248 8685.3717
35.099671 8689.24438
21.204012 8693.11707
44.538502 8696.98853
-26.471205 8700.85938
42.056633 8704.72961
-19.512988 8708.59985
-33.425542 8712.46887
21.208145 8716.33789
22.692406 8720.20569
-26.474435 8724.07349
-34.914084 8727.94067
18.716261 8731.80725
-18.515368 8735.67322
-45.819649 8739.53796
4.815546 8743.40332
-12.56529 8747.26624
15.743148 8751.13037
34.111671 8754.99329
5.311718 8758.85559
-7.599882 8762.71729
-32.935206 8766.57898
-7.102455 8770.44006
40.075513 8774.29932
39.082191 8778.15918
-28.450243 8782.01782
-4.123344 8785.87585
-1.640051 8789.73389
-10.580391 8793.5907
14.250212 8797.44751
-44.340162 8801.3031
-28.958351 8805.1593
10.776474 8809.01367
-21.999733 8812.86804
-46.340507 8816.7218
22.693693 8820.57434
-15.547367 8824.42749
-2.633064 8828.27942
0.842877 8832.13013
-32.436148 8835.98145
12.761543 8839.83154
-11.573187 8843.68042
21.697855 8847.53052
33.61598 8851.37817
7.79694 8855.22644
-39.875463 8859.07349
-13.562367 8862.92053
8.292469 8866.76636
-21.506235 8870.61157
37.089718 8874.4574
7.298719 8878.30078
9.77963 8882.14539
-21.006178 8885.98816
13.257685 8889.83093
-0.647114 8893.67249
-29.947904 8897.51465
3.821833 8901.35498
-13.061148 8905.19531
-22.498724 8909.03503
-31.433727 8912.87415
7.297979 8916.71326
32.633953 8920.55054
12.758442 8924.38843
-45.338895 8928.2251
-16.041908 8932.06116
-48.329006 8935.89661
-56.265308 8939.73206
10.283482 8943.56628
-9.08919 8947.3999
-10.579628 8951.23352
-7.597508 8955.06592
-12.067173 8958.89832
28.15193 8962.72949
-1.639996 8966.56067
8.789715 8970.39063
65.930993 8974.22058
72.36322 8978.04993
-3.130127 8981.87866
58.963728 8985.70618
-0.150406 8989.53369
2.332316 8993.36121
31.631806 8997.18689
16.734328 9001.01257
23.190838 9004.83704
9.782226 9008.66211
11.767981 9012.48596
9.285488 9016.3092
-22.009201 9020.13184
30.142706 9023.95386
-5.117405 9027.77588
-14.557014 9031.59668
-18.525841 9035.41687
-19.023796 9039.23645
41.5626 9043.05603
-4.618832 9046.875
15.738484 9050.69275
-5.613049 9054.5105
-11.078628 9058.32642
-21.019703 9062.14294
20.210177 9065.95825
11.765097 9069.77417
21.200109 9073.58826
17.235672 9077.40234
13.753847 9081.21582
-9.090112 9085.02869
-7.102141 9088.84033
1.339543 9092.65198
-29.95388 9096.46301
18.218192 9100.27344
12.267319 9104.08325
7.297856 9107.89246
-7.596553 9111.70105
-16.540381 9115.50903
-54.769466 9119.31641
14.256118 9123.12317
-20.024776 9126.92932
5.31316 9130.73547
-3.12926 9134.53979
-7.104984 9138.34473
42.05557 9142.14783
22.696697 9145.95154
23.185934 9149.75464
21.20302 9153.55652
49.007015 9157.3584
-10.581383 9161.15845
14.258213 9164.95972
1.835884 9168.75854
9.780041 9172.55859
-20.507253 9176.3562
-3.626707 9180.15503
-25.4796 9183.95203
-6.605563 9187.74902
-7.596362 9191.5448
-12.067341 9195.34058
-28.938814 9199.13574
-12.067173 9202.92969
-36.902822 9206.72363
10.277111 9210.51636
-0.15044 9214.30969
1.339125 9218.10181
17.230419 9221.89331
6.802907 9225.6842
11.767946 9229.47388
-3.130687 9233.26416
-14.555637 9237.05261
15.240103 9240.84106
-16.04531 9244.62891
24.680685 9248.41675
30.149098 9252.20337
-19.519363 9255.98938
-23.99728 9259.77478
-34.909943 9263.55957
-14.550967 9267.34436
-16.042046 9271.12732
-0.150301 9274.91089
-29.945622 9278.69324
-78.624916 9282.47559
8.29093 9286.25671
35.112009 9290.03723
-20.020379 9293.81775
34.611707 9297.59705
4.81617 9301.37634
-21.014645 9305.15381
8.789955 9308.9325
15.245005 9312.70935
-3.627785 9316.4856
-22.498533 9320.26123
11.769243 9324.03687
38.079023 9327.8125
-2.63438 9331.5863
-14.552815 9335.36011
22.689854 9339.13208
-1.143699 9342.90527
18.727211 9346.67664
38.581895 9350.448
4.318697 9354.21814
4.814619 9357.98889
0.8428 9361.75842
0.346157 9365.52673
-1.143418 9369.29504
-21.010049 9373.06274
-32.925858 9376.83044
22.197012 9380.5957
11.269219 9384.36218
5.809605 9388.12744
-15.0518 9391.89148
-30.942299 9395.65613
18.722622 9399.41956
-10.082046 9403.18237
-24.978421 9406.94458
-4.124324 9410.70557
3.324407 9414.46655
4.318634 9418.22693
-43.369087 9421.98669
-4.620746 9425.74646
-46.340385 9429.50562
-29.453061 9433.26294
-6.605986 9437.02026
-9.090557 9440.77698
-16.040415 9444.53369
-15.542622 9448.28918
27.159224 9452.04468
1.836036 9455.79834
-6.105868 9459.55261
13.754298 9463.30627
21.706135 9467.05811
43.046295 9470.81055
-62.222875 9474.56177
-62.242263 9478.31238
-3.129864 9482.06238
-5.117714 9485.81238
26.671083 9489.56116
-16.545033 9493.30933
-14.548877 9497.05811
-10.080259 9500.80505
12.266556 9504.55139
-22.000159 9508.29773
11.766985 9512.04346
7.798057 9515.78735
38.089886 9519.53186
18.223406 9523.27515
4.816097 9527.01843
-19.514741 9530.76172
-9.088768 9534.50195
-31.939877 9538.24341
51.986117 9541.98486
-7.106812 9545.72449
-17.532328 9549.4635
-44.857223 9553.20251
13.255084 9556.94092
-10.577839 9560.67871
-36.895949 9564.41589
72.84626 9568.15125
70.888476 9571.88721
-41.8588 9575.62256
-32.919178 9579.3573
-21.007738 9583.09021
6.803425 9586.82373
24.681389 9590.55664
-30.455356 9594.28955
-18.02717 9598.02063
-28.957039 9601.7511
-17.536045 9605.48157
12.7568 9609.21143
8.786901 9612.94128
-10.082352 9616.66809
-12.565368 9620.39612
-26.958802 9624.12415
13.752552 9627.85095
-10.082935 9631.57715
-8.590991 9635.30151
17.729614 9639.02649
53.015602 9642.75146
39.078612 9646.47522
60.888332 9650.19714
13.256069 9653.92029
22.693367 9657.6416
-45.341969 9661.36292
-14.554566 9665.08423
-3.131004 9668.80371
19.223267 9672.52319
-4.619707 9676.24207
-24.488832 9679.96094
13.752552 9683.67737
-8.098103 9687.39441
29.162903 9691.11084
19.219918 9694.82666
0.345945 9698.54248
23.685205 9702.25586
12.266689 9705.96985
-27.461283 9709.68323
10.778847 9713.39661
-30.432806 9717.10754
-0.150455 9720.81909
-0.647126 9724.53064
-0.647057 9728.24097
8.29282 9731.94946
5.810494 9735.65918
-40.872008 9739.36768
1.339641 9743.07556
18.718025 9746.78284
-2.633129 9750.48828
-43.363062 9754.19495
-37.895123 9757.90039
-15.543013 9761.60522
4.814905 9765.30884
18.726432 9769.01245
1.835884 9772.71606
-29.448183 9776.41846
16.736889 9780.12024
-2.137064 9783.82019
41.577188 9787.52136
28.163753 9791.22131
-21.004674 9794.92065
3.326714 9798.61877
-16.048039 9802.31689
-5.610499 9806.0144
3.324995 9809.71191
14.247066 9813.4082
38.091824 9817.10266
-1.143738 9820.79773
10.279499 9824.4928
49.004801 9828.18604
-5.115816 9831.87866
-12.068769 9835.57129
-20.016439 9839.26331
-5.6152 9842.95471
22.691828 9846.64612
-65.208862 9850.33569
3.32621 9854.02527
24.197761 9857.71362
-2.63382 9861.40259
-10.081572 9865.08911
7.300591 9868.77625
-15.546041 9872.46277
9.778834 9876.14929
-33.415941 9879.83459
4.318598 9883.51807
30.141179 9887.20215
-35.904117 9890.88623
-43.370054 9894.56909
-26.972355 9898.25012
-19.021271 9901.93115
-18.53056 9905.61279
-5.118496 9909.29321
13.753035 9912.97302
-7.104385 9916.651
5.808386 9920.3302
23.188419 9924.00818
-32.922651 9927.68494
39.089209 9931.36047
12.762678 9935.03723
0.346283 9938.71277
-29.457787 9942.3877
-0.150399 9946.0614
11.767848 9949.7345
4.318768 9953.40759
-24.484326 9957.08008
46.047394 9960.75195
-2.137066 9964.422
-14.056377 9968.09265
-9.091812 9971.7627
-12.566753 9975.43152
-7.600902 9979.10095
12.755969 9982.76733
-22.004396 9986.43494
-13.566196 9990.10193
19.718025 9993.76831
-10.58102 9997.43286
-13.061918 10001.09802
32.625107 10004.76257
-9.583724 10008.42651
15.745956 10012.08923
2.829387 10015.75134
37.096486 10019.41284
-13.559128 10023.07434
18.717053 10026.73523
24.182822 10030.39429
-30.942027 10034.05334
-17.530853 10037.71179
-31.429082 10041.37024
26.673118 10045.02808
2.829667 10048.68408
-48.322732 10052.34009
-46.340903 10055.99609
55.490679 10059.65149
13.751622 10063.30444
28.154309 10066.95862
9.283344 10070.61218
-15.051533 10074.26453
15.237021 10077.91626
-23.498264 10081.56677
-8.591695 10085.21729
3.325077 10088.8678
-5.612972 10092.51709
-1.639827 10096.16577
-4.123274 10099.81384
37.595028 10103.4613
7.792975 10107.10754
-45.846779 10110.75439
0.346043 10114.39941
-18.529457 10118.04443
-24.491043 10121.68884
31.145797 10125.33325
39.093061 10128.97522
34.6019 10132.6178
0.34618 10136.26038
-1.640408 10139.90112
35.606245 10143.54187
-7.101496 10147.1814
51.005763 10150.82153
0.34637 10154.46045
1.836392 10158.09937
4.320233 10161.73523
15.249142 10165.3717
49.013369 10169.00879
10.278241 10172.64404
-3.626922 10176.27991
23.694786 10179.91333
-42.347842 10183.54675
11.768048 10187.18018
-24.991493 10190.81299
-11.076571 10194.44397
3.326042 10198.07495
52.990544 10201.70593
2.332237 10205.33691
-10.582455 10208.96606
-70.684148 10212.5946
-17.031348 10216.22253
17.726908 10219.85046
-7.098847 10223.47778
-54.768868 10227.10327
6.803001 10230.72876
-34.400481 10234.35364
0.346093 10237.97852
25.1674 10241.60278
8.792434 10245.22461
28.154685 10248.84766
-20.008992 10252.46948
-16.046402 10256.09131
-12.068434 10259.71069
-9.088671 10263.3313
41.057321 10266.94946
-8.098099 10270.56885
5.80804 10274.18823
29.14816 10277.80396
42.561276 10281.4209
-0.647266 10285.03784
-21.991433 10288.65479
-7.602081 10292.26807
-36.405589 10295.88135
-27.957332 10299.49707
-17.536343 10303.10913
-10.082677 10306.72241
28.155498 10310.33325
-37.413414 10313.94531
-11.077648 10317.55493
-27.956181 10321.16577
-32.425439 10324.77417
14.252987 10328.38257
27.161981 10331.99097
38.097641 10335.59937
-20.021706 10339.20654
-14.554787 10342.81128
-9.090862 10346.41724
-1.143849 10350.02197
0.346318 10353.62671
-15.548153 10357.229
-28.453502 10360.83252
-14.057571 10364.43481
29.656178 10368.03711
23.693439 10371.6394
0.84277 10375.23804
-2.13684 10378.83789
-8.097347 10382.43774
-11.572992 10386.03638
5.80804 10389.63257
10.278157 10393.2312
-47.84041 10396.82861
