Jaz Data File
++++++++++++++++++++++++++++++++++++
Date: Wed Dec 03 21:40:37 2014
User: jaz
Dark Spectrum Present: Yes
Reference Spectrum Present: Yes
Processed Spectrum Present: No
Spectrometers: JAZA2310
Integration Time (usec): 36000 (JAZA2310)
Spectra Averaged: 1 (JAZA2310)
Boxcar Smoothing: 0 (JAZA2310)
Correct for Electrical Dark: Yes (JAZA2310)
Strobe/Lamp Enabled: No (JAZA2310)
Correct for Detector Non-linearity: Yes (JAZA2310)
Correct for Stray Light: No (JAZA2310)
Number of Pixels in Processed Spectrum: 2048
>>>>>Begin Processed Spectral Data<<<<<
W	D	R	S
188.301102	0.000000	0.000000	0.000000
188.764923	0.000000	0.000000	0.000000
189.228699	-50.851192	-7.558390	-12.176540
189.692459	-18.570162	-39.833500	-54.389206
190.156158	11.212086	-62.188099	-133.931503
190.619812	-11.123223	-57.219715	0.233109
191.083435	-1.195390	-15.005013	-22.106224
191.547043	-3.677091	81.726685	10.159032
192.010590	6.249354	4.850288	44.886604
192.474091	28.578102	-0.112843	-39.487179
192.937561	110.378319	17.256495	-32.037586
193.401001	38.499279	37.100838	39.926823
193.864410	-58.303181	22.218170	30.005882
194.327759	13.693295	17.256495	74.637039
194.791077	78.167336	37.100838	34.966492
195.254349	40.979210	42.060989	54.805061
195.717575	-3.677091	22.218170	-24.588942
196.180786	-1.195390	7.331765	42.406696
196.643951	-38.433235	-12.522700	-19.623613
197.107071	16.174267	59.417999	2.714780
197.570145	-8.641074	-67.156906	34.966492
198.033203	-58.303181	-32.383865	67.200844
198.496216	13.693295	-29.900818	15.121435
198.959167	-1.195390	-24.935040	-29.554554
199.422089	-28.500927	22.218170	-12.176540
199.884979	8.730772	22.218170	84.550423
200.347855	-26.018044	12.294271	2.714780
200.810654	-65.756126	-0.112843	10.159032
201.273422	-55.819035	-19.969816	-84.204826
201.736160	-6.159030	4.850288	-22.106224
202.198853	-40.916641	22.218170	37.446709
202.661514	-8.641074	-17.487295	2.714780
203.124130	3.767967	-54.735619	0.233109
203.586700	3.767967	-49.767868	-9.694348
204.049240	-55.819035	-92.007721	0.233109
204.511734	-6.159030	-89.522133	25.044725
204.974197	-58.303181	-84.551277	10.159032
205.436615	18.655268	-82.066147	-37.003830
205.899002	-73.210014	-94.493279	-34.520721
206.361343	-30.983778	-24.935040	-84.204826
206.823654	-23.535265	37.100838	-91.661087
207.285919	-90.606194	-7.558390	-7.212394
207.748123	-26.018044	-34.866882	-37.003830
208.210327	-110.493988	-141.741119	39.926823
208.672485	-18.570162	-34.866882	-17.141241
209.134583	8.730772	-72.126274	-24.588942
209.596649	-33.466869	-39.833500	-17.141241
210.058670	-40.916641	-5.076527	30.005882
210.520676	-11.123223	-52.251621	34.966492
210.982635	-55.819035	-44.800404	-34.520721
211.444534	-70.725372	2.368707	-49.421486
211.906403	-65.756126	-32.383865	-66.810555
212.368240	-58.303181	-17.487295	2.714780
212.830048	-16.087700	-72.126274	-14.658838
213.291779	-40.916641	-32.383865	-12.176540
213.753494	-115.466934	-49.767868	-34.520721
214.215179	6.249354	-59.703789	-119.009026
214.676819	-48.367363	-87.036652	-89.175514
215.138412	-18.570162	-0.112843	-81.719574
215.599960	-48.367363	-12.522700	-76.749519
216.061493	-35.950069	14.775435	-84.204826
216.522949	-53.335133	32.140408	-24.588942
216.984406	-88.120804	-89.522133	-46.937717
217.445801	-63.271660	-34.866882	-46.937717
217.907166	-75.694908	-89.522133	-56.873291
218.368484	-45.883778	-74.611115	87.028587
218.829773	-65.756126	-57.219715	-34.520721
219.291031	-85.635391	-104.436981	-96.632416
219.752228	-8.641074	-2.594633	52.325565
220.213379	-40.916641	-126.816483	-44.454052
220.674500	6.249354	-77.095932	15.121435
221.135574	-55.819035	-109.409546	-19.623613
221.596634	-11.123223	-22.452444	-22.106224
222.057648	70.731590	-52.251621	44.886604
222.518600	6.249354	-79.580978	-24.588942
222.979553	31.058451	-24.935040	-32.037586
223.440430	3.767967	-64.672516	-71.779762
223.901276	-55.819035	-39.833500	-51.905361
224.362076	23.616825	-62.188099	-32.037586
224.822845	-33.466869	-52.251621	-59.357483
225.283569	16.174267	-57.219715	-9.694348
225.744278	-167.709503	-79.580978	-7.212394
226.204910	-48.367363	-44.800404	-17.141241
226.665512	-75.694908	-89.522133	-49.421486
227.126114	16.174267	-42.316833	-66.810555
227.586639	-3.677091	-17.487295	-19.623613
228.047119	-16.087700	-92.007721	-49.421486
228.507568	-40.916641	-19.969816	-91.661087
228.967972	26.097515	-99.464981	-44.454052
229.428345	-18.570162	-84.551277	-37.003830
229.888687	8.730772	-139.253387	-116.522278
230.348984	3.767967	17.256495	-22.106224
230.809219	-85.635391	-17.487295	-46.937717
231.269440	-50.851192	-17.487295	-12.176540
231.729614	-23.535265	39.580967	22.564127
232.189758	-70.725372	-5.076527	-34.520721
232.649841	-58.303181	-42.316833	-44.454052
233.109894	-95.577576	27.179428	-71.779762
233.569901	-70.725372	-2.594633	42.406696
234.029892	-13.605341	-19.969816	-89.175514
234.489822	-40.916641	4.850288	-49.421486
234.949707	21.136166	-17.487295	-29.554554
235.409561	-38.433235	-89.522133	-84.204826
235.869385	-16.087700	-59.703789	-46.937717
236.329163	-28.500927	-49.767868	-39.487179
236.788895	-90.606194	-44.800404	5.196346
237.248581	-23.535265	42.060989	-2.248531
237.708237	-13.605341	-37.350140	-61.841648
238.167847	63.294918	-47.284084	2.714780
238.627441	21.136166	-12.522700	17.602346
239.086960	33.538830	-57.219715	-61.841648
239.546463	-6.159030	-101.950867	-7.212394
240.005920	-30.983778	-101.950867	-61.841648
240.465332	-13.605341	-32.383865	-2.248531
240.924698	45.939041	-94.493279	-39.487179
241.384033	36.019108	24.698919	-51.905361
241.843338	-38.433235	-101.950867	52.325565
242.302597	-65.756126	-67.156906	5.196346
242.761810	-21.052593	-77.095932	-32.037586
243.220993	6.249354	-79.580978	-17.141241
243.680115	-8.641074	-15.005013	5.196346
244.139221	-137.850861	-17.487295	54.805061
244.598282	-70.725372	-39.833500	-64.326050
245.057297	58.336536	-44.800404	-96.632416
245.516266	-45.883778	-44.800404	-136.418991
245.975189	-135.363297	-82.066147	-59.357483
246.434082	-50.851192	-19.969816	-49.421486
246.892944	-3.677091	-24.935040	-99.118309
247.351761	-33.466869	-77.095932	-7.212394
247.810516	-78.179901	2.368707	-66.810555
248.269272	-3.677091	-42.316833	-32.037586
248.727951	-45.883778	-47.284084	15.121435
249.186600	-55.819035	-32.383865	-69.295036
249.645218	-70.725372	-7.558390	-39.487179
250.103790	-93.091835	-19.969816	-109.062813
250.562317	-28.500927	-10.040493	-17.141241
251.020813	-38.433235	-77.095932	-56.873291
251.479279	-28.500927	-52.251621	-39.487179
251.937668	45.939041	-59.703789	0.233109
252.396057	-1.195390	-34.866882	-74.264587
252.854385	-83.150078	-62.188099	-41.970631
253.312683	-63.271660	37.100838	-64.326050
253.770920	-48.367363	-34.866882	-12.176540
254.229126	-28.500927	-49.767868	-64.326050
254.687302	-21.052593	-37.350140	-9.694348
255.145432	-18.570162	-106.923210	-2.248531
255.603500	-33.466869	32.140408	-51.905361
256.061584	6.249354	-62.188099	7.677809
256.519592	-53.335133	42.060989	-14.658838
256.977570	-45.883778	-54.735619	0.233109
257.435455	28.578102	-82.066147	-41.970631
257.893372	-60.787434	-15.005013	34.966492
258.351196	-53.335133	-89.522133	-22.106224
258.808990	-48.367363	-10.040493	-61.841648
259.266754	-70.725372	-111.895851	-7.212394
259.724487	-55.819035	-101.950867	-39.487179
260.182190	-43.400158	-131.790985	-54.389206
260.639832	-28.500927	-74.611115	-29.554554
261.097443	-28.500927	-59.703789	-99.118309
261.554993	-75.694908	-37.350140	-41.970631
262.012512	-40.916641	2.368707	-64.326050
262.469971	-13.605341	-54.735619	-34.520721
262.927429	-6.159030	-12.522700	15.121435
263.384827	-11.123223	-39.833500	-109.062813
263.842194	-11.123223	-42.316833	-56.873291
264.299530	-85.635391	-0.112843	-34.520721
264.756805	-60.787434	-52.251621	-2.248531
265.214050	-75.694908	-39.833500	-81.719574
265.671234	-58.303181	-24.935040	-46.937717
266.128387	-63.271660	-22.452444	-56.873291
266.585510	-23.535265	2.368707	-34.520721
267.042572	-8.641074	24.698919	37.446709
267.499573	-8.641074	-10.040493	-37.003830
267.956604	21.136166	-37.350140	10.159032
268.413574	6.249354	-54.735619	5.196346
268.870483	-48.367363	7.331765	-19.623613
269.327362	-63.271660	-62.188099	-171.254807
269.784180	-75.694908	-7.558390	-12.176540
270.240936	-75.694908	-72.126274	-56.873291
270.697693	-40.916641	-67.156906	-119.009026
271.154419	-70.725372	-42.316833	-81.719574
271.611053	-33.466869	-52.251621	-9.694348
272.067688	-147.802048	-32.383865	-22.106224
272.524292	-58.303181	9.813137	-41.970631
272.980835	-45.883778	-77.095932	-49.421486
273.437347	-78.179901	-49.767868	7.677809
273.893799	3.767967	-32.383865	-76.749519
274.350250	6.249354	19.737318	-96.632416
274.806610	-40.916641	4.850288	-86.690048
275.262939	-11.123223	-94.493279	27.525356
275.719238	-45.883778	-37.350140	12.640285
276.175507	-53.335133	-42.316833	-49.421486
276.631714	-33.466869	-62.188099	-34.520721
277.087891	-33.466869	-2.594633	-61.841648
277.544067	-45.883778	-54.735619	25.044725
278.000122	-100.549232	-84.551277	27.525356
278.456177	-26.018044	-119.355682	-14.658838
278.912201	8.730772	-12.522700	-14.658838
279.368164	-70.725372	-99.464981	-96.632416
279.824097	-120.440453	-67.156906	-54.389206
280.279968	-78.179901	-92.007721	-84.204826
280.735840	-55.819035	-22.452444	-51.905361
281.191620	-11.123223	12.294271	-81.719574
281.647400	-28.500927	-52.251621	-37.003830
282.103149	-65.756126	-2.594633	-17.141241
282.558838	-83.150078	-54.735619	-4.730410
283.014465	-3.677091	29.659971	25.044725
283.470062	6.249354	-62.188099	17.602346
283.925629	-18.570162	-47.284084	2.714780
284.381134	-68.240692	-24.935040	12.640285
284.836639	-53.335133	-111.895851	-76.749519
285.292053	-11.123223	17.256495	-24.588942
285.747467	23.616825	-47.284084	-64.326050
286.202820	-63.271660	27.179428	-56.873291
286.658142	-50.851192	-0.112843	10.159032
287.113434	-78.179901	-17.487295	-39.487179
287.568634	-88.120804	24.698919	-34.520721
288.023804	-78.179901	-5.076527	5.196346
288.478973	-6.159030	-22.452444	0.233109
288.934113	-85.635391	-64.672516	30.005882
289.389130	-83.150078	-69.641533	79.593933
289.844208	-55.819035	-27.417875	17.602346
290.299164	-38.433235	-44.800404	52.325565
290.754089	-122.927231	-79.580978	37.446709
291.208984	-28.500927	-19.969816	5.196346
291.663879	-1.195390	-54.735619	34.966492
292.118683	53.377872	-87.036652	37.446709
292.573456	6.249354	19.737318	34.966492
293.028198	-58.303181	-57.219715	-17.141241
293.482849	33.538830	-0.112843	-24.588942
293.937561	8.730772	19.737318	-17.141241
294.392151	43.459179	-89.522133	2.714780
294.846741	-40.916641	-24.935040	-46.937717
295.301239	28.578102	-49.767868	-71.779762
295.755737	-33.466869	-79.580978	30.005882
296.210175	-48.367363	-32.383865	49.846104
296.664581	-18.570162	-87.036652	-86.690048
297.118958	-117.953644	-49.767868	-46.937717
297.573242	-45.883778	-15.005013	-17.141241
298.027557	1.286340	-77.095932	-44.454052
298.481812	21.136166	-24.935040	-39.487179
298.935974	38.499279	-104.436981	-14.658838
299.390137	-78.179901	-44.800404	-99.118309
299.844238	-105.521469	9.813137	-84.204826
300.298340	-35.950069	-10.040493	-106.576492
300.752350	-78.179901	-15.005013	-46.937717
301.206360	-8.641074	-24.935040	39.926823
301.660278	-35.950069	-96.979080	2.714780
302.114197	-6.159030	-19.969816	-44.454052
302.568054	-35.950069	-96.979080	-59.357483
303.021881	-23.535265	-74.611115	7.677809
303.475677	3.767967	-2.594633	17.602346
303.929413	-13.605341	-44.800404	-66.810555
304.383118	-1.195390	-52.251621	54.805061
304.836761	-28.500927	-99.464981	-2.248531
305.290375	-28.500927	-92.007721	-123.982704
305.743958	-43.400158	-19.969816	-17.141241
306.197510	-33.466869	22.218170	-12.176540
306.650970	-26.018044	12.294271	-29.554554
307.104431	-30.983778	-22.452444	-59.357483
307.557800	26.097515	-101.950867	84.550423
308.011169	-55.819035	-84.551277	-39.487179
308.464508	3.767967	-22.452444	-4.730410
308.917755	-55.819035	-77.095932	-46.937717
309.371063	-70.725372	-34.866882	39.926823
309.824219	-3.677091	-84.551277	-24.588942
310.277374	-65.756126	-99.464981	-17.141241
310.730499	13.693295	24.698919	-4.730410
311.183563	-3.677091	-52.251621	-7.212394
311.636597	11.212086	-32.383865	-17.141241
312.089569	-3.677091	-57.219715	-81.719574
312.542511	-1.195390	-12.522700	-7.212394
312.995422	-21.052593	-52.251621	-51.905361
313.448273	-40.916641	-69.641533	17.602346
313.901093	28.578102	-54.735619	25.044725
314.353882	33.538830	-34.866882	-91.661087
314.806580	-80.664864	19.737318	-96.632416
315.259308	-70.725372	17.256495	-69.295036
315.711975	11.212086	-2.594633	-121.495750
316.164581	-70.725372	-77.095932	-39.487179
316.617126	36.019108	-24.935040	30.005882
317.069672	3.767967	-44.800404	-14.658838
317.522156	50.898319	-62.188099	44.886604
317.974579	-6.159030	-32.383865	-71.779762
318.427002	1.286340	24.698919	-2.248531
318.879333	-30.983778	-57.219715	20.083288
319.331665	3.767967	-57.219715	-54.389206
319.783936	-45.883778	-5.076527	-2.248531
320.236176	-68.240692	-7.558390	-27.071629
320.688354	18.655268	-29.900818	-49.421486
321.140503	-68.240692	-37.350140	-9.694348
321.592651	-28.500927	-0.112843	-116.522278
322.044647	3.767967	-111.895851	-24.588942
322.496704	-53.335133	-37.350140	-54.389206
322.948639	-30.983778	12.294271	-22.106224
323.400604	-35.950069	-34.866882	-14.658838
323.852509	-18.570162	-64.672516	-56.873291
324.304352	-28.500927	-37.350140	-89.175514
324.756165	-16.087700	-34.866882	104.372566
325.207916	-33.466869	-47.284084	42.406696
325.659668	-13.605341	-2.594633	-2.248531
326.111328	-16.087700	-64.672516	10.159032
326.562988	-95.577576	-12.522700	-7.212394
327.014557	-1.195390	7.331765	-7.212394
327.466156	23.616825	-109.409546	15.121435
327.917664	-63.271660	-124.329529	-59.357483
328.369110	-85.635391	-15.005013	-12.176540
328.820557	80.645767	-7.558390	-24.588942
329.271942	-26.018044	2.368707	-12.176540
329.723297	55.857323	-24.935040	34.966492
330.174561	-26.018044	-64.672516	-54.389206
330.625854	-30.983778	4.850288	-7.212394
331.077026	8.730772	34.620743	-19.623613
331.528229	-60.787434	-17.487295	5.196346
331.979370	-3.677091	-19.969816	27.525356
332.430450	-13.605341	-42.316833	-32.037586
332.881500	-63.271660	12.294271	-14.658838
333.332489	-78.179901	-27.417875	-9.694348
333.783478	-8.641074	-37.350140	2.714780
334.234406	-28.500927	-52.251621	-44.454052
334.685303	-43.400158	-72.126274	-7.212394
335.136078	-38.433235	-64.672516	-7.212394
335.586914	-50.851192	-74.611115	27.525356
336.037659	13.693295	44.540775	67.200844
336.488342	-90.606194	44.540775	129.141022
336.939026	40.979210	-19.969816	87.028587
337.389648	40.979210	-44.800404	49.846104
337.840240	13.693295	69.334038	-51.905361
338.290771	-78.179901	-22.452444	-27.071629
338.741272	-85.635391	-29.900818	22.564127
339.191681	-38.433235	-0.112843	79.593933
339.642120	-53.335133	2.368707	99.417709
340.092468	40.979210	-44.800404	89.506638
340.542816	-18.570162	42.060989	99.417709
340.993103	-70.725372	14.775435	32.486309
341.443329	-13.605341	2.368707	54.805061
341.893555	-53.335133	81.726685	99.417709
342.343689	-48.367363	-2.594633	156.374664
342.793793	26.097515	49.500305	104.372566
343.243866	-1.195390	-10.040493	168.749603
343.693878	3.767967	2.368707	178.647736
344.143890	-11.123223	9.813137	131.617340
344.593842	-65.756126	136.224396	166.274796
345.043732	-23.535265	74.291382	193.491852
345.493591	-55.819035	7.331765	265.188232
345.943359	-21.052593	59.417999	188.544113
346.393158	-55.819035	84.204964	282.481842
346.842896	1.286340	69.334038	238.002716
347.292542	-13.605341	126.319366	247.889832
347.742218	-28.500927	44.540775	218.223969
348.191803	40.979210	96.594536	260.246246
348.641357	-50.851192	22.218170	307.178528
349.090881	-40.916641	111.458847	329.397430
349.540314	-55.819035	84.204964	260.246246
349.989777	-18.570162	193.146866	368.878387
350.439148	-55.819035	262.372711	514.253418
350.888489	-16.087700	582.788574	568.377991
351.337799	-53.335133	960.367188	686.314453
351.787048	-60.787434	1552.148315	948.481201
352.236267	-50.851192	2081.677979	1195.058716
352.685425	-80.664864	2252.637939	1316.821411
353.134552	-40.916641	2146.730713	1370.334717
353.583649	-58.303181	1818.548950	1277.879150
354.032684	-135.363297	1323.781616	1214.554199
354.481659	-53.335133	894.317383	1063.329712
354.930634	-63.271660	717.877747	985.155151
355.379517	-50.851192	668.785889	926.467712
355.828430	75.688812	415.386169	826.096924
356.277222	-11.123223	449.886719	865.283264
356.726013	-30.983778	437.567322	906.894714
357.174774	8.730772	375.934174	931.360229
357.623444	-50.851192	412.921112	1056.004639
358.072113	-16.087700	361.133423	1190.184326
358.520721	-13.605341	457.277130	1209.681030
358.969299	-43.400158	348.796875	1307.087769
359.417786	-18.570162	375.934174	1270.575073
359.866302	-120.440453	427.709869	1197.495972
360.314697	-48.367363	375.934174	1314.388062
360.763123	-115.466934	440.031158	1431.099609
361.211456	-88.120804	422.780579	1435.958862
361.659760	-45.883778	373.467590	1353.311890
362.108032	-50.851192	383.333374	1547.634766
362.556244	-30.983778	356.198975	1542.782837
363.004456	6.249354	341.393646	1523.371094
363.452576	-8.641074	417.851166	1642.192627
363.900696	8.730772	454.813934	1695.483032
364.348663	-90.606194	710.516113	2079.603760
364.796722	-38.433235	1304.314697	2212.070068
365.244690	-13.605341	1775.016235	2442.805664
365.692596	-93.091835	1864.475098	2325.109375
366.140472	16.174267	1447.766357	2125.388184
366.588287	-8.641074	945.694519	2156.699951
367.036102	63.294918	749.768372	2171.147705
367.483826	1.286340	479.443848	2103.703857
367.931549	-88.120804	427.709869	2103.703857
368.379181	-35.950069	378.400665	2016.912109
368.826843	-45.883778	383.333374	2135.023682
369.274384	-35.950069	452.350372	2365.960205
369.721924	-70.725372	425.245270	2279.430176
370.169403	-68.240692	474.518494	2502.795166
370.616821	-60.787434	479.443848	2377.971436
371.064270	-58.303181	435.103088	2226.508789
371.511566	-85.635391	417.851166	2228.915039
371.958923	-68.240692	449.886719	1992.787842
372.406158	-93.091835	501.602966	2084.424316
372.853424	36.019108	447.422974	2007.263306
373.300568	3.767967	511.448914	2050.675049
373.747711	-103.035301	494.217346	2269.810547
374.194794	-28.500927	521.293640	2050.675049
374.641846	-80.664864	631.943420	2243.350586
375.088898	-75.694908	617.200806	2365.960205
375.535828	18.655268	820.855652	2236.133057
375.982758	-60.787434	1033.683594	2305.879150
376.429596	6.249354	1311.615601	2428.402100
376.876465	-38.433235	1949.009521	2151.883301
377.323242	-21.052593	2454.471924	1980.722900
377.769989	-55.819035	2856.804443	1588.866211
378.216675	-35.950069	2933.243652	1280.313354
378.663330	38.499279	2880.698242	1026.696167
379.109985	28.578102	2763.560059	902.000488
379.556519	-38.433235	2401.655029	779.534485
380.003052	33.538830	1922.450928	774.631531
380.449524	-83.150078	1396.738403	718.219910
380.895996	-85.635391	1138.640991	669.128357
381.342377	-105.521469	847.800415	681.404480
381.788727	16.174267	641.770203	639.656250
382.235046	-40.916641	550.818359	772.179749
382.681274	-60.787434	491.755280	938.698425
383.127533	-35.950069	496.679321	1065.771362
383.573669	-28.500927	508.987518	1336.285156
384.019836	-112.980476	440.031158	1387.353760
384.465912	-73.210014	417.851166	1363.039551
384.911957	3.767967	398.128967	1302.220337
385.357971	-50.851192	435.103088	1068.212891
385.803925	-33.466869	385.799591	1041.351807
386.249847	-55.819035	479.443848	1173.120483
386.695679	-35.950069	380.867065	1350.879639
387.141541	-35.950069	508.987518	1617.957642
387.587311	13.693295	479.443848	1833.391724
388.033051	-45.883778	422.780579	1719.694702
388.478729	38.499279	489.293396	1751.158569
388.924408	-1.195390	442.495209	1596.139893
389.369995	-18.570162	432.638794	1639.769409
389.815552	-53.335133	395.663208	1564.614990
390.261078	-120.440453	484.368805	1547.634766
390.706543	-43.400158	444.959137	1520.944214
391.152008	-73.210014	454.813934	1508.809204
391.597351	-1.195390	533.597168	1741.478882
392.042725	-11.123223	496.679321	1838.226563
392.487976	-95.577576	444.959137	1821.303955
392.933289	-58.303181	469.593048	1855.145630
393.378479	-35.950069	474.518494	1954.174194
393.823639	-55.819035	462.203766	1932.446167
394.268768	-43.400158	484.368805	1997.613159
394.713837	-30.983778	558.197327	2067.551270
395.158905	18.655268	587.705750	2065.140625
395.603851	-6.159030	533.597168	2214.476807
396.048798	-45.883778	449.886719	2219.289795
396.493683	-60.787434	553.278198	2221.696289
396.938568	-73.210014	494.217346	2221.696289
397.383392	-63.271660	558.197327	2269.810547
397.828156	-45.883778	582.788574	2341.932617
398.272888	-95.577576	661.418945	2385.177979
398.717560	-63.271660	614.743347	2363.558105
399.162201	-78.179901	624.572693	2401.989502
399.606781	-35.950069	575.412109	2438.004639
400.051361	-21.052593	607.370667	2286.644287
400.495819	-100.549232	555.737915	2586.714600
400.940308	-30.983778	582.788574	2649.005127
401.384705	-30.983778	526.215149	2581.921143
401.829102	-26.018044	580.329834	2457.206543
402.273438	-38.433235	639.313660	2615.469238
402.717682	6.249354	592.622314	2771.069580
403.161926	1.286340	609.828186	2713.647461
403.606110	-16.087700	597.538818	2861.916260
404.050293	-26.018044	1011.696716	2859.527100
404.494385	-45.883778	1404.030029	3060.046631
404.938446	-50.851192	1484.194702	3219.689697
405.382477	-58.303181	1379.721436	3179.207275
405.826447	-112.980476	994.590942	3029.040771
406.270386	-65.756126	776.741272	2794.985596
406.714233	-21.052593	673.696777	2562.745605
407.158081	36.019108	695.790710	2787.811035
407.601868	-63.271660	737.504517	2957.451904
408.045624	-26.018044	818.405518	3169.680176
408.489319	-1.195390	933.465271	3274.432617
408.933014	3.767967	1097.164185	3248.255371
409.376617	-28.500927	1731.459961	3300.604004
409.820190	-43.400158	3195.546387	3160.151367
410.263702	-13.605341	5146.834473	3307.740479
410.707184	-70.725372	6343.074219	3421.854248
411.150635	-68.240692	6479.639648	3267.294189
411.594025	-55.819035	5604.389160	2928.801025
412.037384	-23.535265	4922.075195	2873.864014
412.480682	38.499279	4240.416016	2935.964600
412.923981	-75.694908	3514.146484	3457.488281
413.367126	-53.335133	2823.342529	3777.643311
413.810333	-26.018044	2173.219727	4110.992676
414.253479	8.730772	1612.771851	4153.474121
414.696533	-13.605341	1136.201782	4120.434570
415.139587	6.249354	948.140198	3886.510010
415.582581	-33.466869	811.054688	4101.550293
416.025543	23.616825	636.856995	4077.940186
416.468414	-35.950069	634.400269	4346.791016
416.911285	-40.916641	644.226379	4762.933105
417.354065	-40.916641	622.115479	5027.811523
417.796875	-6.159030	681.062134	5273.397949
418.239594	-16.087700	479.443848	5565.098145
418.682281	-95.577576	587.705750	5616.363281
419.124908	-65.756126	528.675903	6079.098633
419.567505	73.210320	617.200806	6211.318848
420.010071	-26.018044	531.136597	6255.360352
420.452545	-68.240692	627.029541	6447.570801
420.895020	-30.983778	565.575745	6320.235840
421.337372	-63.271660	538.518066	6549.345215
421.779785	-53.335133	555.737915	6644.106934
422.222107	-48.367363	506.526245	7001.708008
422.664368	-78.179901	516.371460	7033.958008
423.106628	-90.606194	548.358398	6704.161621
423.548798	-30.983778	649.139099	5960.675781
423.990967	-23.535265	658.963074	5448.503906
424.433044	-8.641074	624.572693	5257.041504
424.875092	-50.851192	516.371460	4934.119141
425.317078	-68.240692	617.200806	4830.968750
425.759064	-8.641074	634.400269	4678.417969
426.200989	-55.819035	695.790710	4511.550781
426.642853	-40.916641	631.943420	4243.102051
427.084686	-60.787434	712.970032	4273.747559
427.526459	-6.159030	550.818359	4049.601807
427.968201	23.616825	619.658203	4054.325439
428.409912	-48.367363	720.331421	4023.618164
428.851563	11.212086	705.608215	4049.601807
429.293121	-115.466934	710.516113	4073.217773
429.734711	-108.007599	749.768372	3999.991455
430.176239	1.286340	649.139099	4044.877930
430.617706	-8.641074	666.330322	3981.086426
431.059113	-68.240692	698.245239	4492.733398
431.500488	-43.400158	683.517151	4360.922363
431.941833	-55.819035	676.151794	4358.567383
432.383087	-35.950069	614.743347	4073.217773
432.824341	-58.303181	725.238525	3919.621338
433.265533	-1.195390	688.427002	3898.336670
433.706726	-43.400158	717.877747	3595.157471
434.147827	-95.577576	757.125732	3538.213379
434.588867	-68.240692	882.078918	3647.328613
435.029877	-3.677091	1187.406982	3744.487793
435.470825	8.730772	2420.864746	3905.431641
435.911804	-73.210014	3483.281006	4247.817383
436.352661	13.693295	3409.642090	4398.598633
436.793518	-117.953644	2464.072021	4269.033691
437.234283	-45.883778	1975.560059	3997.628662
437.675049	-13.605341	1649.123535	3782.379150
438.115723	31.058451	1184.969360	3478.862793
438.556396	-21.052593	1060.547729	3474.113281
438.997040	-45.883778	1119.125488	3371.945313
439.437561	-38.433235	1028.798340	3426.606201
439.878113	-28.500927	1206.904297	3360.058838
440.318573	-21.052593	1028.798340	3388.584473
440.759033	-40.916641	1075.196655	3592.785645
441.199341	-40.916641	1172.780518	3843.923340
441.639709	-40.916641	1126.444458	3732.644043
442.079956	6.249354	1138.640991	3474.113281
442.520264	-68.240692	1202.030396	3383.830566
442.960510	38.499279	1194.719116	3224.450928
443.400604	28.578102	1233.704712	3083.890137
443.840759	-53.335133	1316.482056	3193.497070
444.280762	1.286340	1282.408325	3471.738525
444.720825	-53.335133	1170.342529	3609.388672
445.160767	-45.883778	1099.604614	3919.621338
445.600739	-90.606194	1153.274170	3877.047607
446.040558	-18.570162	1141.080078	3988.176025
446.480438	-93.091835	1131.323120	3886.510010
446.920258	-90.606194	1209.341187	3888.875244
447.359955	-1.195390	1233.704712	3685.255127
447.799713	3.767967	1262.930908	4113.353516
448.239319	-8.641074	1199.593262	4342.079590
448.678955	58.336536	1389.445679	4528.013672
449.118500	-65.756126	1663.659912	4645.533691
449.558014	-28.500927	2074.447021	4363.277832
449.997498	-68.240692	3090.709961	4337.368652
450.436951	8.730772	5867.390625	4294.958984
450.876343	45.939041	10570.519531	4061.410400
451.315674	-73.210014	15486.738281	3962.177246
451.754974	-80.664864	18438.767578	4063.772217
452.194183	-50.851192	18021.242188	4110.992676
452.633392	-48.367363	15993.146484	4073.217773
453.072510	-33.466869	14227.466797	4332.656738
453.511688	-28.500927	12223.409180	4193.580078
453.950684	-88.120804	10420.025391	4085.023682
454.389740	-53.335133	8599.638672	3806.054199
454.828735	-58.303181	6904.587402	4007.079834
455.267639	-75.694908	5125.781738	4342.079590
455.706543	36.019108	3758.368408	4617.340332
456.145325	-43.400158	2837.684570	4887.243652
456.584137	-70.725372	2062.393799	5165.871094
457.022858	-6.159030	1622.467285	5102.711426
457.461578	-38.433235	1340.811157	4988.001465
457.900208	16.174267	1163.028076	4708.944336
458.338867	-16.087700	1072.755249	4924.745117
458.777405	-63.271660	967.702087	5427.504883
459.215912	-38.433235	938.357300	5357.480957
459.654388	-33.466869	972.591736	5427.504883
460.092773	-58.303181	806.153992	5259.377930
460.531189	-90.606194	803.703369	5098.032227
460.969513	-68.240692	764.482056	4948.177246
461.407806	-33.466869	710.516113	5217.309082
461.846008	-45.883778	641.770203	5212.634277
462.284241	13.693295	656.507385	4957.548828
462.722351	-3.677091	614.743347	4706.596191
463.160461	-68.240692	803.703369	4612.640625
463.598541	6.249354	656.507385	4612.640625
464.036530	-43.400158	612.285767	5002.053711
464.474518	-26.018044	725.238525	4654.930176
464.912384	-3.677091	705.608215	4600.890625
465.350281	-35.950069	693.336182	4398.598633
465.788086	-8.641074	825.755554	4353.856934
466.225891	43.459179	1038.568848	4772.319336
466.663605	-38.433235	1262.930908	5233.671387
467.101318	-50.851192	1323.781616	5751.413086
467.539001	-40.916641	1360.268799	6079.098633
467.976563	26.097515	1304.314697	6183.495117
468.414124	-30.983778	1070.313843	5981.582031
468.851593	21.136166	945.694519	5672.264648
469.289063	-43.400158	960.367188	5525.468750
469.726440	-63.271660	911.447327	5569.759766
470.163849	11.212086	813.505066	5537.125977
470.601135	-11.123223	889.422302	5653.633301
471.038422	-120.440453	823.305603	5527.800293
471.475677	-21.052593	766.934082	5172.886719
471.912811	-23.535265	759.578064	5669.935547
472.350006	43.459179	788.998047	6475.335938
472.787048	-53.335133	855.147400	7181.283691
473.224121	-33.466869	752.220947	7346.821777
473.661072	36.019108	752.220947	7569.505859
474.098053	8.730772	752.220947	7390.470703
474.534943	-13.605341	744.863037	7043.170898
474.971802	1.286340	943.249084	6104.625977
475.408630	-28.500927	1053.222168	6081.419434
475.845367	-33.466869	1099.604614	5446.170410
476.282104	-60.787434	860.044922	5434.504883
476.718750	6.249354	793.900024	5821.207520
477.155426	-65.756126	872.286926	6858.789063
477.591949	31.058451	742.410461	7720.805176
478.028503	-55.819035	710.516113	7979.443359
478.464966	-65.756126	764.482056	8221.602539
478.901428	-23.535265	744.863037	8515.715820
479.337860	21.136166	867.390259	8538.488281
479.774170	-53.335133	835.554077	8337.957031
480.210510	13.693295	757.125732	8360.759766
480.646698	-38.433235	722.785034	8558.980469
481.082947	1.286340	771.837830	8613.611328
481.519073	-38.433235	867.390259	9308.261719
481.955200	-33.466869	781.644104	10026.550781
482.391266	-35.950069	921.233948	10483.250000
482.827301	-73.210014	811.054688	10692.018555
483.263306	-50.851192	860.044922	10148.172852
483.699188	8.730772	779.192566	9446.325195
484.135101	-60.787434	833.104553	8709.163086
484.570923	-23.535265	909.000488	8404.074219
485.006744	11.212086	955.476624	8025.167480
485.442413	-48.367363	972.591736	7716.222168
485.878174	-73.210014	940.803223	7608.493164
486.313782	-95.577576	928.572876	7615.372070
486.749390	-38.433235	975.036438	7498.379883
487.184998	-70.725372	975.036438	7855.909180
487.620453	-105.521469	904.106384	8420.028320
488.055939	-53.335133	1001.922302	9020.381836
488.491333	-55.819035	916.340698	9344.487305
488.926727	-68.240692	982.369812	9541.307617
489.362030	13.693295	1084.960815	9692.697266
489.797302	-45.883778	1060.547729	9577.474609
490.232513	-58.303181	1087.401733	9484.777344
490.667755	-13.605341	989.702698	8734.177734
491.102905	-11.123223	1087.401733	9185.927734
491.537964	-6.159030	1060.547729	9321.846680
491.973022	-21.052593	1194.719116	9459.898438
492.407990	-23.535265	1075.196655	8854.636719
492.842957	-35.950069	1121.565186	8604.508789
493.277832	-103.035301	1067.872437	8180.512207
493.712738	-38.433235	1082.519775	8296.902344
494.147491	13.693295	1114.245728	8417.749023
494.582275	-38.433235	1092.283325	8543.042969
495.017029	-30.983778	1131.323120	8488.383789
495.451660	-6.159030	1199.593262	8255.834961
495.886292	-45.883778	1097.164185	8290.057617
496.320831	-60.787434	1321.348633	8054.879395
496.755402	48.418663	1588.527954	7544.271484
497.189850	-85.635391	2190.072266	7551.154297
497.624298	-35.950069	3333.571289	7314.650391
498.058655	-33.466869	5095.365234	7270.976563
498.493042	-80.664864	5643.992676	7415.733398
498.927368	-50.851192	5324.463379	7539.683594
499.361572	60.815777	4056.357666	7564.917480
499.795807	-58.303181	3321.680176	8321.992188
500.229919	-28.500927	2725.279541	8611.335938
500.664063	-43.400158	2271.880371	8970.452148
501.098083	-58.303181	1743.561401	8643.194336
501.532104	3.767967	1416.181519	8672.770508
501.966064	-100.549232	1335.945923	8841.005859
502.399994	-26.018044	1223.960327	9120.186523
502.833893	-45.883778	1155.712769	9749.144531
503.267700	-28.500927	1265.365601	9611.373047
503.701477	-40.916641	1148.396606	10265.197266
504.135193	-70.725372	1106.925659	11005.769531
504.568909	16.174267	1136.201782	11774.130859
505.002502	-18.570162	1060.547729	11869.930664
505.436127	-117.953644	1133.762573	11856.566406
505.869629	28.578102	1102.045166	11287.618164
506.303162	-93.091835	1109.365845	10873.621094
506.736603	-90.606194	1033.683594	10397.865234
507.169983	-108.007599	1065.430908	10044.575195
507.603363	-78.179901	1070.313843	9194.993164
508.036621	-16.087700	1138.640991	8474.714844
508.469940	-50.851192	1192.281738	7844.464844
508.903107	-95.577576	1241.012451	7415.733398
509.336304	-75.694908	1219.087524	7192.786133
509.769379	-48.367363	1182.531738	7619.957520
510.202484	-18.570162	1270.235474	8280.932617
510.635529	-35.950069	1416.181519	9176.861328
511.068481	-21.052593	1394.307617	9600.074219
511.501434	-43.400158	1416.181519	10543.889648
511.934265	31.058451	1411.321289	11327.842773
512.367126	-68.240692	1350.540405	11591.294922
512.799927	-135.363297	1408.890991	11097.536133
513.232605	-26.018044	1287.277100	10730.151367
513.665344	-26.018044	1316.482056	10211.197266
514.097961	-21.052593	1262.930908	9627.190430
514.530579	-38.433235	1547.296631	9278.820313
514.963135	-68.240692	1881.388916	9396.546875
515.395691	13.693295	2319.967041	9961.193359
515.828064	-55.819035	2310.352051	10555.117188
516.260498	-103.035301	1939.352905	10797.418945
516.692871	-48.367363	1857.225342	10505.711914
517.125183	40.979210	1733.880493	10523.679688
517.557373	-95.577576	1678.193359	9760.431641
517.989624	-58.303181	1629.738159	9455.374023
518.421753	-65.756126	1617.619629	9147.393555
518.853943	3.767967	1484.194702	8945.480469
519.286072	-98.063286	1641.854614	9165.528320
519.718018	6.249354	1707.252319	8766.007813
520.150024	-3.677091	1784.692017	8670.496094
520.581909	-63.271660	1719.357056	8399.514648
521.013855	-33.466869	1835.472046	8066.305664
521.445679	-8.641074	1849.974854	8011.451660
521.877502	-30.983778	1871.724365	7537.389648
522.309204	-48.367363	1806.458740	7819.284668
522.740906	-13.605341	1828.219849	8175.945313
523.172546	-70.725372	1837.889404	8410.911133
523.604187	-21.052593	1779.854370	8239.860352
524.035767	-48.367363	1712.094482	7816.995605
524.467224	38.499279	1540.018188	7227.287598
524.898682	-50.851192	1506.043457	6644.106934
525.330078	-40.916641	1421.041748	6533.159668
525.761475	-40.916641	1462.339966	7434.104004
526.192749	-26.018044	1365.132202	8426.865234
526.624023	-70.725372	1335.945923	8943.209961
527.055237	-6.159030	1331.080444	9274.291016
527.486389	18.655268	1362.700684	9355.806641
527.917542	-40.916641	1374.858643	9308.261719
528.348572	16.174267	1377.290039	8922.774414
528.779663	-85.635391	1472.053955	8294.620117
529.210571	-35.950069	1527.886108	7640.591797
529.641541	-23.535265	1639.431519	8036.595703
530.072388	-85.635391	1692.724121	8248.989258
530.503235	23.616825	1823.384399	8606.784180
530.934082	-28.500927	1874.140625	8913.692383
531.364746	-75.694908	1956.251465	9358.069336
531.795532	-40.916641	2163.588135	9679.146484
532.226135	-18.570162	2600.759033	9423.701172
532.656738	-6.159030	2997.692627	9353.542969
533.087280	-13.605341	3428.650635	9292.409180
533.517822	48.418663	4950.193848	9717.536133
533.948242	-28.500927	8535.893555	11843.201172
534.378662	-13.605341	20527.914063	17125.093750
534.809082	-58.303181	40140.511719	25013.150391
535.239319	8.730772	58752.703125	33255.191406
535.669617	-103.035301	64672.980469	39057.480469
536.099792	-6.159030	60678.925781	40206.027344
536.529968	-68.240692	52702.558594	37448.246094
536.960083	-43.400158	46051.652344	33026.503906
537.390137	-33.466869	40421.832031	27972.716797
537.820190	-13.605341	35558.386719	24652.712891
538.250183	13.693295	30081.865234	22331.666016
538.680115	-11.123223	25659.267578	19775.183594
539.109985	-23.535265	21137.125000	18801.968750
539.539795	-23.535265	17479.056641	16619.705078
539.969543	-83.150078	15025.800781	15052.461914
540.399292	-43.400158	12185.617188	13312.105469
540.828979	-70.725372	9518.382813	11901.109375
541.258606	-68.240692	6932.252441	10649.390625
541.688171	-40.916641	5165.544922	10278.694336
542.117737	-45.883778	3952.392578	10525.924805
542.547302	-68.240692	3059.714111	10393.370117
542.976685	-38.433235	2579.190430	9346.750977
543.406128	-65.756126	2175.627441	8150.827637
543.835388	-63.271660	1903.130127	6856.482422
544.264771	-103.035301	1707.252319	6322.552246
544.693970	-26.018044	1557.000000	6104.625977
545.123230	-68.240692	2026.223877	6611.757324
545.552307	26.097515	5753.416016	8388.117188
545.981506	-60.787434	10325.610352	9364.861328
546.410583	-21.052593	11666.816406	9954.430664
546.839539	-63.271660	8088.835938	9344.487305
547.268555	-26.018044	5506.489746	8148.543945
547.697449	-45.883778	4663.998535	7567.211914
548.126282	-55.819035	4053.996094	6637.174805
548.555054	-21.052593	3166.965576	6109.266602
548.983887	-16.087700	2129.869873	5930.471191
549.412598	40.979210	1557.000000	6209.000000
549.841309	-58.303181	1481.766602	6685.686035
550.269958	-16.087700	1270.235474	6990.188477
550.698486	-73.210014	1209.341187	7192.786133
551.127075	-53.335133	1287.277100	6847.255859
551.555481	-6.159030	1124.004883	6378.131836
551.983948	-105.521469	1289.711182	5907.231445
552.412292	-60.787434	1508.470703	5867.714844
552.840698	-43.400158	1724.198486	5960.675781
553.268860	-35.950069	1811.295166	6310.969727
553.697205	-16.087700	1712.094482	6299.386719
554.125366	-63.271660	1576.403442	6826.494141
554.553467	-45.883778	1399.168823	7326.141113
554.981628	-53.335133	1343.243652	7273.275391
555.409607	-53.335133	1377.290039	7390.470703
555.837646	-33.466869	1260.495850	7220.387695
556.265564	-50.851192	1270.235474	6803.421875
556.693481	36.019108	1197.156128	6814.958984
557.121338	-117.953644	1145.958008	6711.089355
557.549133	6.249354	1165.466187	6849.562500
557.976929	18.655268	1143.519043	7008.619629
558.404602	18.655268	1233.704712	6987.884277
558.832275	-60.787434	1316.482056	6868.014648
559.259888	-21.052593	1184.969360	6426.743164
559.687439	-21.052593	1287.277100	6155.664551
560.114929	-48.367363	1299.447144	6192.769531
560.542419	-105.521469	1158.151245	6431.371582
560.969788	-28.500927	1211.777954	6877.238281
561.397156	6.249354	1219.087524	6909.519531
561.824524	-63.271660	1216.651001	6653.347656
562.251770	-11.123223	1189.844360	6653.347656
562.679016	-40.916641	1214.214355	6287.802734
563.106140	-63.271660	1223.960327	6083.740234
563.533264	-33.466869	1287.277100	6570.152832
563.960327	-16.087700	1199.593262	7245.685059
564.387329	-83.150078	1223.960327	7899.388672
564.814331	-6.159030	1233.704712	8171.379395
565.241272	-8.641074	1350.540405	7885.659668
565.668213	-40.916641	1377.290039	7551.154297
566.094971	-45.883778	1493.906128	7116.849609
566.521790	-120.440453	1866.891479	6994.795898
566.948425	-95.577576	2368.027832	6660.278320
567.375183	40.979210	3150.289795	6523.909668
567.801819	-23.535265	6023.060547	6292.436523
568.228394	-43.400158	11553.053711	6153.344727
568.654846	-43.400158	18552.441406	6151.025391
569.081421	85.602165	19742.058594	5888.636719
569.507874	-58.303181	16242.855469	5872.364258
569.934265	21.136166	11479.400391	6004.807617
570.360596	-117.953644	9020.064453	6537.784180
570.786865	-100.549232	7523.303223	6424.428711
571.213074	26.097515	5543.794434	6718.017090
571.639282	-78.179901	3862.522705	7252.583008
572.065430	-73.210014	2627.114258	7486.904785
572.491516	6.249354	2031.047241	7537.389648
572.917603	-1.195390	1653.969360	7178.981934
573.343567	-50.851192	1544.870605	6895.686035
573.769531	-60.787434	1416.181519	6794.191895
574.195435	-23.535265	1304.314697	6718.017090
574.621277	-120.440453	1321.348633	6923.353027
575.047119	-73.210014	1297.013428	7252.583008
575.472839	8.730772	1350.540405	7555.741699
575.898560	-50.851192	1552.148315	7958.862305
576.324158	-30.983778	2084.088379	8155.395020
576.749817	-73.210014	2995.306152	7906.251953
577.175293	-95.577576	3328.814941	7273.275391
577.600830	-8.641074	3016.780029	6699.542969
578.026306	-21.052593	2464.072021	6014.096680
578.451721	-70.725372	2890.254150	5939.765625
578.877136	-3.677091	3502.275879	5986.227539
579.302429	-40.916641	3656.480957	5837.486816
579.727661	-28.500927	3155.054443	6014.096680
580.152832	-78.179901	2396.851807	6354.976563
580.578064	-16.087700	2223.767090	6604.823730
581.003113	16.174267	2269.474854	6584.022949
581.428223	-1.195390	2139.505127	6067.493652
581.853271	-65.756126	1811.295166	5953.705566
582.278198	-55.819035	1673.349121	5646.645996
582.703125	11.212086	1738.721069	5191.593262
583.127930	-6.159030	1658.814697	5254.704590
583.552795	-45.883778	1842.723877	5048.882324
583.977539	-21.052593	2093.728760	5186.916992
584.402283	-28.500927	2202.107422	5460.168457
584.826965	13.693295	2377.636475	5315.446777
585.251587	-21.052593	2808.998291	5422.837891
585.676208	-63.271660	2978.600830	5427.504883
586.100647	-73.210014	3559.240234	5364.485352
586.525208	-48.367363	4454.761230	5359.815430
586.949524	26.097515	6088.058105	5315.446777
587.373962	-60.787434	8947.433594	5100.372070
587.798218	-105.521469	15552.540039	5236.008789
588.222534	31.058451	24073.685547	5037.177246
588.646729	-30.983778	27839.000000	5278.070801
589.070984	-80.664864	25825.445313	5476.497070
589.495117	-60.787434	25440.001953	5364.485352
589.919128	-75.694908	32886.281250	5420.504395
590.343201	-98.063286	40771.761719	5439.171387
590.767151	-18.570162	43900.074219	5280.407227
591.191101	-33.466869	42083.140625	5226.659180
591.614990	-63.271660	39258.015625	5292.088379
592.038818	-53.335133	36366.710938	5443.837402
592.462524	-65.756126	34324.203125	5462.500977
592.886292	-43.400158	30711.714844	5600.053711
593.310059	3.767967	27325.580078	5814.229980
593.733582	-73.210014	24298.890625	6099.984863
594.157227	-45.883778	21466.121094	6394.337891
594.580750	-55.819035	19315.509766	6528.534180
595.004272	-93.091835	17181.654297	6514.658691
595.427673	-73.210014	15857.284180	6016.417969
595.851074	-68.240692	14524.623047	5960.675781
596.274353	-18.570162	13548.225586	6213.637207
596.697632	-60.787434	12645.289063	6547.033691
597.120911	-85.635391	11646.746094	7082.317383
597.544067	-40.916641	10938.276367	7445.584473
597.967224	-30.983778	10264.882813	7860.486816
598.390320	-40.916641	9588.458984	8004.593262
598.813354	-55.819035	9128.939453	8358.478516
599.236328	31.058451	8672.453125	8517.993164
599.659241	-8.641074	8305.708984	7773.489746
600.082153	-1.195390	8077.412109	7594.734375
600.505005	-16.087700	7357.989258	7755.166504
600.927795	-65.756126	6842.320313	7784.939941
601.350525	-23.535265	6720.003906	7876.506348
601.773254	-38.433235	6292.113281	7475.428223
602.195862	-21.052593	6210.995605	7162.876953
602.618408	-21.052593	5872.040527	6819.572754
603.040955	-38.433235	5688.239746	6752.647461
603.463440	-13.605341	5322.128418	6371.185059
603.885925	8.730772	5273.072266	6144.066406
604.308350	-3.677091	4936.135254	5918.852051
604.730652	38.499279	4917.388184	5662.949219
605.152893	-13.605341	4617.012695	5695.548828
605.575195	-16.087700	4534.740234	5700.205078
605.997375	-23.535265	4282.846191	5616.363281
606.419495	-28.500927	4091.777832	5707.189453
606.841553	-108.007599	4072.888428	5448.503906
607.263672	-95.577576	3860.156738	5586.072754
607.685608	-35.950069	3812.825439	5646.645996
608.107605	-80.664864	3537.882324	6206.681641
608.529480	-70.725372	3582.965820	7139.865234
608.951294	-78.179901	3473.782227	7558.036621
609.373108	-135.363297	3473.782227	7523.622070
609.794800	-23.535265	3440.529053	7231.886719
610.216553	-78.179901	3580.593994	6994.795898
610.638123	-40.916641	3563.986084	6771.113281
611.059753	-88.120804	3412.018066	6828.801270
611.481262	-16.087700	3138.376709	6551.657715
611.902832	-65.756126	3021.551514	6417.485352
612.324219	-23.535265	3016.780029	6484.589355
612.745605	-85.635391	2856.804443	6401.282227
613.166931	-28.500927	2730.065430	6262.312988
613.588196	-48.367363	2763.560059	6213.637207
614.009460	40.979210	2634.300293	5618.692871
614.430664	-3.677091	2550.424561	5520.805664
614.851807	-50.851192	2942.794434	5569.759766
615.272827	-53.335133	3680.185059	5976.937012
615.693909	-75.694908	4931.448730	6011.773926
616.114929	-73.210014	5118.763672	6468.395020
616.535889	-18.570162	5041.532227	7008.619629
616.956787	48.418663	3720.468506	7259.480957
617.377563	-53.335133	3326.436768	7107.641602
617.798340	-28.500927	2988.147217	6803.421875
618.219055	-88.120804	2980.987793	6361.923828
618.639832	-167.709503	2598.363037	6468.395020
619.060364	-8.641074	2348.806396	5928.147461
619.481018	-65.756126	2108.187012	5632.670410
619.901611	-35.950069	2084.088379	5839.812500
620.322083	11.212086	1874.140625	5586.072754
620.742493	-58.303181	1847.557861	5763.048340
621.162842	-38.433235	1876.556885	5544.119141
621.583191	-55.819035	1801.622192	5233.671387
622.003418	-48.367363	1610.347778	5182.240234
622.423706	-105.521469	1736.300903	4847.385254
622.843872	-63.271660	1683.036987	4788.744141
623.264038	-1.195390	1639.431519	4532.716797
623.684143	-78.179901	1544.870605	4457.442383
624.104126	-40.916641	1537.591797	4302.028320
624.524170	-65.756126	1637.008179	4250.174805
624.944031	18.655268	1520.605835	4172.349121
625.364014	-35.950069	1450.195557	4884.899902
625.783752	-30.983778	1416.181519	5937.441895
626.203552	-38.433235	1435.619995	6440.628906
626.623230	-30.983778	1544.870605	6558.593750
627.042969	-65.756126	1428.331299	5863.064941
627.462585	-40.916641	1554.574219	5341.136230
627.882141	-8.641074	1418.611694	4767.625977
628.301697	-23.535265	1311.615601	4306.741211
628.721130	-11.123223	1372.427246	3798.952148
629.140625	-26.018044	1328.647705	3637.845215
629.559998	-80.664864	1311.615601	3744.487793
629.979309	-103.035301	1389.445679	3630.731445
630.398560	28.578102	1267.800537	3697.104248
630.817810	13.693295	1248.319214	3580.924072
631.237000	-11.123223	1197.156128	3576.179688
631.656067	-18.570162	1206.904297	3483.612305
632.075195	36.019108	1177.656372	3611.760254
632.494202	-33.466869	1221.523926	3725.537109
632.913208	13.693295	1204.467407	4089.746094
633.332092	-33.466869	1148.396606	4004.717285
633.750977	-73.210014	1209.341187	4141.675781
634.169739	-30.983778	1055.664063	4313.809570
634.588562	-6.159030	1121.565186	4316.165527
635.007263	23.616825	1097.164185	4113.353516
635.425964	-65.756126	1004.366028	3978.722656
635.844543	-85.635391	1028.798340	3900.701660
636.263123	-75.694908	1097.164185	3552.451904
636.681641	-103.035301	960.367188	3405.220703
637.100037	-23.535265	977.481079	3602.273193
637.518494	1.286340	1124.004883	3725.537109
637.936829	-53.335133	1048.337891	3983.449219
638.355164	-33.466869	997.034607	4080.301758
638.773438	-88.120804	1004.366028	4040.153564
639.191650	-58.303181	987.258545	3860.486816
639.609863	-80.664864	955.476624	3813.155518
640.027893	-117.953644	957.921875	3713.690674
640.445984	-53.335133	1001.922302	3609.388672
640.863953	-26.018044	852.698486	3552.451904
641.281921	-38.433235	935.911377	3578.552002
641.699829	-3.677091	1006.809692	3746.855957
642.117676	-26.018044	918.787354	3940.901367
642.535461	-58.303181	948.140198	4110.992676
642.953247	-18.570162	899.211914	4014.168457
643.370972	-18.570162	872.286926	3763.434814
643.788635	-50.851192	779.192566	4023.618164
644.206177	8.730772	992.146912	3671.034424
644.623718	1.286340	906.553467	3312.497559
645.041260	-13.605341	953.031250	3345.792480
645.458618	-28.500927	938.357300	3485.986572
645.876099	-18.570162	889.422302	3611.760254
646.293396	-63.271660	877.183228	3768.171143
646.710693	-40.916641	825.755554	3585.668701
647.127991	36.019108	950.585754	3257.774902
647.545166	-16.087700	776.741272	3305.361816
647.962341	40.979210	850.249512	3160.151367
648.379333	-8.641074	852.698486	3269.674072
648.796448	18.655268	857.596191	3466.988770
649.213379	-63.271660	943.249084	3233.973389
649.630310	-100.549232	850.249512	3126.794434
650.047180	-70.725372	730.145081	3081.506104
650.463989	21.136166	820.855652	2919.249268
650.880859	-68.240692	779.192566	2881.031250
651.297546	-70.725372	710.516113	2797.376465
651.714233	-65.756126	747.315735	2744.755615
652.130859	-16.087700	771.837830	2725.613281
652.547485	-35.950069	737.504517	2704.073486
652.963928	6.249354	722.785034	2818.894775
653.380432	-65.756126	762.029968	2964.613037
653.796814	-68.240692	815.955322	2797.376465
654.213196	-48.367363	1121.565186	2912.084229
654.629578	-70.725372	1917.621094	3283.950684
655.045837	-60.787434	2435.269531	3566.689209
655.462036	-1.195390	2495.264160	3775.275635
655.878174	-70.725372	1949.009521	3711.321533
656.294312	-120.440453	1680.615356	3590.413330
656.710327	-95.577576	1416.181519	3405.220703
657.126404	-28.500927	1335.945923	3245.874756
657.542358	-13.605341	1184.969360	3462.238770
657.958252	40.979210	1111.805908	3758.698730
658.374084	-58.303181	970.146912	4278.461914
658.789917	-8.641074	957.921875	4429.201660
659.205688	-50.851192	857.596191	4405.662109
659.621338	-73.210014	860.044922	4136.955566
660.037048	13.693295	793.900024	3784.746582
660.452637	-30.983778	649.139099	3293.467285
660.868164	-68.240692	703.153992	3148.239502
661.283691	-98.063286	739.957581	2778.245117
661.699158	-60.787434	717.877747	2529.178223
662.114502	3.767967	622.115479	2462.006592
662.529846	43.459179	695.790710	2413.996582
662.945129	-93.091835	693.336182	2363.558105
663.360413	-6.159030	737.504517	2488.401367
663.775635	-6.159030	744.863037	2509.991699
664.190674	-11.123223	678.607056	2601.093262
664.605835	-11.123223	622.115479	2629.843506
665.020813	-6.159030	690.881714	2634.634277
665.435791	1.286340	644.226379	2931.189209
665.850769	8.730772	663.874634	3291.087891
666.265625	-26.018044	685.972107	4174.708496
666.680420	-11.123223	580.329834	4478.618652
667.095215	-45.883778	690.881714	4685.462891
667.509949	-108.007599	663.874634	4259.604492
667.924622	-26.018044	685.972107	3921.985596
668.339233	-26.018044	693.336182	3469.363525
668.753784	-23.535265	627.029541	3148.239502
669.168335	-73.210014	644.226379	2892.976074
669.582825	13.693295	784.095520	2569.937012
669.997192	-53.335133	1525.459473	2337.126221
670.411560	-80.664864	3433.402100	2236.133057
670.825867	-16.087700	4804.839355	2389.981689
671.240173	-26.018044	4588.811523	2353.947266
671.654358	-103.035301	3050.174561	2739.970459
672.068481	-38.433235	2480.869385	2708.860596
672.482605	36.019108	2199.700439	2943.127441
672.896667	11.212086	1953.837646	2993.252930
673.310669	-3.677091	1595.802124	2814.113281
673.724609	-40.916641	1333.513184	2581.921143
674.138489	-11.123223	960.367188	2670.557617
674.552307	-38.433235	784.095520	2821.285156
674.966064	-103.035301	703.153992	2840.408447
675.379822	-80.664864	656.507385	2869.085205
675.793579	-80.664864	735.051453	2871.474365
676.207153	-28.500927	639.313660	3095.809570
676.620789	-60.787434	698.245239	3176.825684
677.034241	-11.123223	629.486511	3248.255371
677.447754	-6.159030	597.538818	3081.506104
677.861206	-38.433235	597.538818	2792.593750
678.274597	-13.605341	595.080627	2728.006348
678.687866	16.174267	563.116394	2761.501953
679.101135	-26.018044	511.448914	2608.281494
679.514404	-8.641074	513.910217	2418.798340
679.927551	45.939041	523.754272	2327.512695
680.340698	28.578102	528.675903	2207.256836
680.753723	-30.983778	486.831146	2286.644287
681.166748	-35.950069	427.709869	2192.815186
681.579712	-95.577576	422.780579	2236.133057
681.992615	8.730772	553.278198	2228.915039
682.405457	-48.367363	469.593048	2531.576660
682.818298	-53.335133	403.060150	2593.904541
683.231018	3.767967	442.495209	2802.158691
683.643738	-38.433235	501.602966	2990.866943
684.056335	-13.605341	570.494263	2931.189209
684.468994	-78.179901	705.608215	3064.815674
684.881531	-11.123223	886.974609	3291.087891
685.293945	-65.756126	830.654907	3659.182617
685.706482	-28.500927	604.912842	3718.429199
686.118774	-98.063286	501.602966	3324.389893
686.531128	-40.916641	472.055939	2914.472656
686.943481	-60.787434	560.656860	2737.577637
687.355713	-3.677091	506.526245	2310.686768
687.767883	-45.883778	462.203766	2151.883301
688.179932	-48.367363	407.990692	1898.636108
688.592041	-38.433235	366.067474	2026.560181
689.004089	1.286340	346.329224	2149.474854
689.416016	-38.433235	388.265442	2178.370605
689.827881	-68.240692	531.136597	2036.206787
690.239868	-13.605341	563.116394	2031.383667
690.651611	-70.725372	457.277130	2216.883301
691.063354	-85.635391	432.638794	2231.321045
691.475098	-33.466869	338.925690	1978.309570
691.886719	-63.271660	417.851166	2026.560181
692.298340	-58.303181	407.990692	1794.704224
692.709900	-21.052593	363.600494	1869.644897
693.121460	-48.367363	292.017212	1758.417847
693.532837	-80.664864	319.179199	1700.326050
693.944214	-80.664864	250.016571	1891.389282
694.355652	-88.120804	254.959381	1934.860840
694.766846	-13.605341	222.824509	1843.060913
695.178101	-23.535265	282.137360	2026.560181
695.589294	-98.063286	274.726227	2036.206787
696.000366	-50.851192	289.547455	2019.324341
696.411438	-33.466869	301.895599	2062.729736
696.822510	-88.120804	217.879288	2094.064453
697.233459	-13.605341	324.116272	2289.049072
697.644409	-13.605341	269.785156	2385.177979
698.055298	-78.179901	316.710388	2277.025146
698.466064	-1.195390	299.426117	2291.453369
698.876831	58.336536	324.116272	2130.205811
699.287537	-90.606194	203.041061	2411.594971
699.698181	-55.819035	289.547455	2531.576660
700.108826	-43.400158	284.607391	2560.348389
700.519348	-58.303181	217.879288	2277.025146
700.929810	-85.635391	225.297058	2077.193604
701.340271	63.294918	227.769485	1995.200317
701.750732	-110.493988	178.302673	1893.805054
702.161011	-33.466869	222.824509	1951.760254
702.571350	-43.400158	304.365021	1680.952759
702.981567	28.578102	245.073502	1530.650879
703.391724	-18.570162	309.303375	1462.678467
703.801880	-45.883778	279.667084	1516.090332
704.211914	-88.120804	296.956665	1387.353760
704.621948	-33.466869	262.372711	1367.903076
705.031921	-8.641074	282.137360	1277.879150
705.441895	-45.883778	262.372711	1275.444458
705.851746	11.212086	272.255798	1375.197754
706.261536	-90.606194	232.713928	1182.871582
706.671265	-43.400158	294.487000	1273.009766
707.081055	-40.916641	331.521545	1234.044556
707.490662	-80.664864	230.241821	1170.682495
707.900330	-13.605341	240.129913	1170.682495
708.309814	38.499279	292.017212	1221.863770
708.719299	-21.052593	235.186081	1141.420166
709.128784	-21.052593	168.404495	1107.265991
709.538147	-78.179901	262.372711	1080.419189
709.947510	-3.677091	193.146866	1068.212891
710.356750	-35.950069	185.725220	1026.696167
710.766052	-55.819035	220.352005	980.266296
711.175171	-13.605341	343.861450	933.806396
711.584290	1.286340	262.372711	889.763611
711.993347	-18.570162	257.430481	982.710693
712.402405	8.730772	259.901642	1153.614136
712.811401	21.136166	198.094101	1153.614136
713.220276	-65.756126	148.603302	1112.145996
713.629150	-26.018044	235.186081	1019.367065
714.037964	-50.851192	289.547455	1129.223877
714.446777	-35.950069	193.146866	955.817627
714.855408	-152.778229	277.196716	950.926758
715.264099	-65.756126	148.603302	943.589905
715.672668	-50.851192	175.828247	958.262878
716.081177	-16.087700	245.073502	1053.562622
716.489746	-40.916641	175.828247	1077.978027
716.898132	-8.641074	175.828247	1146.297852
717.306519	65.773827	237.658112	1077.978027
717.714844	-83.150078	257.430481	958.262878
718.123108	-3.677091	198.094101	965.598083
718.531372	-63.271660	269.785156	928.914001
718.939514	-40.916641	259.901642	838.345215
719.347595	-50.851192	225.297058	857.937683
719.755676	-11.123223	198.094101	843.243652
720.163696	-18.570162	257.430481	877.524414
720.571716	-68.240692	222.824509	1014.480530
720.979614	-26.018044	185.725220	1136.541870
721.387451	-127.901390	198.094101	1214.554199
721.795227	-35.950069	235.186081	1275.444458
722.202942	8.730772	200.567627	1199.933105
722.610718	-78.179901	282.137360	1326.554077
723.018311	-16.087700	170.879211	1255.964966
723.425903	-98.063286	217.879288	1158.491333
723.833374	1.286340	222.824509	1129.223877
724.240906	-40.916641	108.981689	921.575073
724.648376	-33.466869	232.713928	943.589905
725.055725	-50.851192	104.027084	1007.150452
725.463013	-90.606194	170.879211	970.487854
725.870300	31.058451	262.372711	909.341431
726.277466	1.286340	108.981689	904.447571
726.684631	-55.819035	183.251083	902.000488
727.091797	23.616825	165.929657	855.488892
727.498779	-8.641074	222.824509	772.179749
727.905823	6.249354	151.078842	784.437378
728.312805	-48.367363	259.901642	774.631531
728.719666	-58.303181	163.454727	811.396423
729.126526	55.857323	165.929657	777.082886
729.533264	-1.195390	156.029465	779.534485
729.940063	-48.367363	262.372711	757.467712
730.346680	-85.635391	227.769485	622.458130
730.753357	-35.950069	138.700302	580.672729
731.159851	3.767967	207.987473	651.937805
731.566406	-63.271660	245.073502	624.915039
731.972900	-26.018044	66.855148	514.253418
732.379272	-38.433235	210.460617	585.590088
732.785645	-65.756126	254.959381	610.170898
733.191895	-90.606194	133.748260	519.175781
733.598206	-50.851192	180.776855	543.781372
734.004333	-8.641074	168.404495	551.161377
734.410522	-55.819035	151.078842	590.506836
734.816528	-16.087700	158.504700	622.458130
735.222656	-90.606194	165.929657	686.314453
735.628662	-28.500927	237.658112	597.881653
736.034546	-53.335133	205.514374	588.048645
736.440430	-80.664864	284.607391	492.098602
736.846252	-68.240692	151.078842	580.672729
737.252014	-80.664864	173.353714	659.305542
737.657715	6.249354	178.302673	958.262878
738.063354	-70.725372	175.828247	1009.593933
738.468933	-21.052593	207.987473	982.710693
738.874512	11.212086	175.828247	875.076538
739.280029	-68.240692	101.549759	870.180115
739.685486	-85.635391	126.319366	794.241821
740.090881	16.174267	153.554276	828.546753
740.496216	-48.367363	173.353714	875.076538
740.901550	-45.883778	183.251083	1002.263123
741.306702	-18.570162	106.504440	1104.825806
741.711914	-63.271660	128.795807	950.926758
742.117004	-40.916641	185.725220	948.481201
742.522095	3.767967	210.460617	975.377380
742.927124	-115.466934	250.016571	835.895752
743.332031	73.210320	287.077484	818.747192
743.737000	13.693295	210.460617	747.657776
744.141785	-43.400158	183.251083	583.131470
744.546631	-83.150078	66.855148	654.393860
744.951355	-18.570162	133.748260	590.506836
745.356079	16.174267	148.603302	543.781372
745.760620	-23.535265	185.725220	588.048645
746.165283	-1.195390	247.545151	499.484497
746.569824	-8.641074	143.652069	521.636536
746.974243	-85.635391	143.652069	494.560669
747.378723	-21.052593	170.879211	445.302734
747.783020	-95.577576	118.889565	440.374786
748.187378	-30.983778	146.127808	546.241455
748.591614	-93.091835	200.567627	479.787262
748.995850	-108.007599	123.842819	492.098602
749.399963	21.136166	146.127808	487.174530
749.804077	-21.052593	160.979828	521.636536
750.208130	-108.007599	220.352005	511.792175
750.612122	3.767967	126.319366	455.157196
751.016052	-73.210014	193.146866	435.446747
751.419922	-35.950069	165.929657	432.982452
751.823792	-1.195390	163.454727	467.473541
752.227478	-103.035301	84.204964	452.693939
752.631226	-85.635391	146.127808	460.084015
753.034851	-33.466869	195.620590	445.302734
753.438477	-58.303181	156.029465	632.286072
753.842102	-50.851192	116.412712	728.033875
754.245544	-43.400158	203.041061	904.447571
754.648987	21.136166	84.204964	1041.351807
755.052368	-33.466869	180.776855	1041.351807
755.455750	1.286340	138.700302	1221.863770
755.859009	-75.694908	136.224396	1095.063965
756.262268	-105.521469	99.072197	1080.419189
756.665405	-95.577576	210.460617	914.235168
757.068542	-70.725372	165.929657	875.076538
757.471680	-35.950069	151.078842	683.859497
757.874634	-21.052593	153.554276	639.656250
758.277588	-35.950069	178.302673	585.590088
758.680420	-53.335133	76.769966	666.672791
759.083374	3.767967	170.879211	642.112488
759.486084	-50.851192	123.842819	745.205017
759.888916	-98.063286	99.072197	696.133057
760.291504	26.097515	101.549759	570.837158
760.694214	-48.367363	66.855148	620.000854
761.096802	-26.018044	99.072197	627.372131
761.499268	8.730772	151.078842	639.656250
761.901733	-100.549232	151.078842	647.025330
762.304199	-58.303181	200.567627	514.253418
762.706543	21.136166	158.504700	447.766571
763.108826	36.019108	96.594536	484.712189
763.511108	-75.694908	106.504440	597.881653
763.913208	-70.725372	158.504700	762.371948
764.315369	-68.240692	27.179428	752.562866
764.717529	8.730772	56.938694	799.143616
765.119568	-35.950069	37.100838	941.144348
765.521545	1.286340	94.116913	1117.025757
765.923462	-112.980476	314.241486	1190.184326
766.325317	-78.179901	528.675903	1336.285156
766.727112	-60.787434	513.910217	1263.270264
767.128845	-93.091835	459.740509	1136.541870
767.530518	-103.035301	358.666260	865.283264
767.932251	-120.440453	299.426117	804.045105
768.333862	-21.052593	188.199249	602.797729
768.735413	-6.159030	292.017212	494.560669
769.136841	-11.123223	279.667084	341.737762
769.538269	11.212086	496.679321	450.230286
769.939636	6.249354	511.448914	432.982452
770.341003	-26.018044	390.731476	361.477478
770.742249	-63.271660	287.077484	457.620667
771.143433	-28.500927	235.186081	403.403687
771.544617	-16.087700	200.567627	531.479736
771.945740	-50.851192	198.094101	487.174530
772.346802	-26.018044	215.406448	615.086060
772.747803	-23.535265	183.251083	501.946259
773.148682	-21.052593	86.683006	432.982452
773.549622	-98.063286	136.224396	474.861969
773.950439	31.058451	76.769966	346.673370
774.351196	-88.120804	131.272018	354.075714
774.751892	-11.123223	178.302673	270.129578
775.152588	-26.018044	61.897060	341.737762
775.553162	-26.018044	108.981689	376.278137
775.953735	-35.950069	146.127808	403.403687
776.354309	-88.120804	64.376160	413.264893
776.754639	-30.983778	106.504440	307.178528
777.155090	-6.159030	89.161072	230.586594
777.555420	-35.950069	136.224396	265.188232
777.955750	16.174267	133.748260	252.832535
778.355896	-3.677091	108.981689	378.744598
778.756104	-6.159030	32.140408	415.729950
779.156189	13.693295	118.889565	418.194916
779.556274	-21.052593	74.291382	420.659515
779.956299	-100.549232	32.140408	452.693939
780.356201	-13.605341	148.603302	425.588959
780.756165	-58.303181	136.224396	501.946259
781.156006	-98.063286	81.726685	501.946259
781.555786	-65.756126	59.417999	629.829163
781.955505	-33.466869	54.459293	597.881653
782.355225	-26.018044	128.795807	497.022644
782.754761	-18.570162	81.726685	529.019104
783.154358	-28.500927	29.659971	363.944519
783.553894	-93.091835	96.594536	371.344879
783.953369	-26.018044	12.294271	272.600220
784.352783	43.459179	44.540775	277.541199
784.752075	-28.500927	89.161072	354.075714
785.151367	-60.787434	136.224396	368.878387
785.550598	40.979210	165.929657	319.523224
785.949768	58.336536	69.334038	304.709259
786.348877	-23.535265	101.549759	250.361099
786.747986	36.019108	195.620590	317.054688
787.147034	-13.605341	113.935760	208.332367
787.545959	-43.400158	71.812691	265.188232
787.944885	-58.303181	116.412712	148.948532
788.343750	-38.433235	158.504700	171.224182
788.742493	-13.605341	123.842819	181.122055
789.141235	-100.549232	170.879211	218.223969
789.539917	-18.570162	165.929657	200.912415
789.938538	-83.150078	141.176239	223.169327
790.337158	-40.916641	175.828247	191.018036
790.735718	-58.303181	17.256495	233.058807
791.134094	-28.500927	64.376160	280.011566
791.532532	-33.466869	39.580967	319.523224
791.930847	-70.725372	131.272018	324.460510
792.329224	26.097515	69.334038	220.696701
792.727417	-35.950069	108.981689	188.544113
793.125610	-48.367363	17.256495	166.274796
793.523682	36.019108	84.204964	297.301086
793.921753	-45.883778	12.294271	235.530670
794.319824	-105.521469	47.020592	242.946472
794.717773	-45.883778	47.020592	277.541199
795.115723	-112.980476	89.161072	198.439178
795.513550	-78.179901	47.020592	309.647705
795.911377	-35.950069	24.698919	247.889832
796.309082	-16.087700	79.248306	339.269836
796.706787	-21.052593	138.700302	289.891754
797.104370	-80.664864	56.938694	351.608551
797.501953	-103.035301	44.540775	297.301086
797.899536	-11.123223	42.060989	272.600220
798.296936	-6.159030	61.897060	376.278137
798.694397	6.249354	116.412712	289.891754
799.091736	-85.635391	81.726685	334.333984
799.489014	-50.851192	131.272018	277.541199
799.886230	-65.756126	113.935760	228.114273
800.283447	-11.123223	81.726685	230.586594
800.680542	-33.466869	54.459293	257.775116
801.077637	-83.150078	32.140408	309.647705
801.474670	-33.466869	106.504440	188.544113
801.871643	-73.210014	27.179428	309.647705
802.268555	-70.725372	66.855148	381.211029
802.665405	-85.635391	27.179428	376.278137
803.062256	-45.883778	163.454727	361.477478
803.458923	6.249354	81.726685	292.361633
803.855652	-23.535265	121.366173	213.278519
804.252258	-48.367363	138.700302	242.946472
804.648804	-3.677091	86.683006	223.169327
805.045410	-85.635391	29.659971	208.332367
805.441833	-63.271660	39.580967	220.696701
805.838257	6.249354	69.334038	178.647736
806.234619	-21.052593	148.603302	153.899338
806.630859	-100.549232	101.549759	116.758133
807.027100	21.136166	34.620743	161.324860
807.423279	-21.052593	-2.594633	161.324860
807.819458	-60.787434	118.889565	238.002716
808.215515	6.249354	12.294271	235.530670
808.611572	-8.641074	44.540775	270.129578
809.007507	1.286340	12.294271	309.647705
809.403381	-63.271660	66.855148	257.775116
809.799194	-1.195390	106.504440	203.385834
810.195068	-1.195390	64.376160	225.641846
810.590759	-35.950069	81.726685	186.070114
810.986450	-115.466934	81.726685	166.274796
811.382080	-43.400158	66.855148	158.849884
811.777649	-18.570162	37.100838	139.045578
812.173157	-28.500927	61.897060	134.093567
812.568665	-70.725372	101.549759	136.569550
812.964050	-73.210014	71.812691	139.045578
813.359375	-1.195390	89.161072	146.472916
813.754639	-95.577576	113.935760	111.804153
814.149841	-1.195390	74.291382	205.859161
814.545105	-75.694908	51.979916	158.849884
814.940186	-70.725372	108.981689	267.658813
815.335266	-65.756126	146.127808	270.129578
815.730347	21.136166	156.029465	205.859161
816.125244	-55.819035	108.981689	240.474625
816.520203	-26.018044	138.700302	240.474625
816.914978	-38.433235	257.430481	257.775116
817.309753	-30.983778	762.029968	124.188194
817.704468	-1.195390	2031.047241	151.424057
818.099182	-50.851192	3193.165039	176.173309
818.493774	33.538830	4183.815918	89.506638
818.888367	-35.950069	5130.460938	156.374664
819.282898	-70.725372	5581.086914	129.141022
819.677307	-53.335133	5469.174316	104.372566
820.071716	-95.577576	4720.355957	181.122055
820.466003	36.019108	3673.073975	148.948532
820.860291	-68.240692	2768.344238	183.595993
821.254517	-3.677091	2204.514404	129.141022
821.648743	1.286340	1712.094482	77.115471
822.042786	-23.535265	1301.880981	109.327148
822.436890	11.212086	962.812012	82.072296
822.830872	-13.605341	708.062317	94.462311
823.224792	-8.641074	528.675903	91.984589
823.618774	-58.303181	252.488022	44.886604
824.012512	-11.123223	225.297058	109.327148
824.406311	43.459179	240.129913	91.984589
824.799988	-40.916641	148.603302	106.849907
825.193665	-53.335133	183.251083	220.696701
825.587280	-43.400158	163.454727	186.070114
825.980835	-21.052593	168.404495	131.617340
826.374329	-60.787434	2.368707	139.045578
826.767761	18.655268	86.683006	134.093567
827.161194	-80.664864	12.294271	82.072296
827.554443	-108.007599	47.020592	223.169327
827.947754	-26.018044	113.935760	168.749603
828.340942	-40.916641	64.376160	153.899338
828.734131	-58.303181	89.161072	136.569550
829.127136	-98.063286	96.594536	173.698792
829.520264	-18.570162	84.204964	104.372566
829.913208	-45.883778	74.291382	183.595993
830.306152	-43.400158	37.100838	109.327148
830.699097	-11.123223	101.549759	119.234825
831.091797	-45.883778	56.938694	106.849907
831.484619	1.286340	74.291382	228.114273
831.877319	-33.466869	89.161072	208.332367
832.270020	-33.466869	64.376160	267.658813
832.662537	-30.983778	24.698919	354.075714
833.055054	-115.466934	84.204964	346.673370
833.447510	-26.018044	81.726685	351.608551
833.839966	-73.210014	22.218170	280.011566
834.232361	-23.535265	34.620743	193.491852
834.624634	-98.063286	113.935760	178.647736
835.016907	-40.916641	9.813137	124.188194
835.409058	-35.950069	42.060989	104.372566
835.801208	-88.120804	71.812691	141.521515
836.193298	-26.018044	74.291382	34.966492
836.585327	-30.983778	39.580967	67.200844
836.977295	-6.159030	14.775435	136.569550
837.369202	-21.052593	101.549759	109.327148
837.761047	-43.400158	89.161072	74.637039
838.152832	-40.916641	34.620743	114.281197
838.544617	-28.500927	69.334038	94.462311
838.936218	63.294918	81.726685	134.093567
839.327942	-145.314056	74.291382	47.366405
839.719421	-33.466869	47.020592	34.966492
840.111023	31.058451	74.291382	109.327148
840.502380	-53.335133	4.850288	126.664719
840.893860	-6.159030	34.620743	176.173309
841.285217	-90.606194	19.737318	89.506638
841.676453	-33.466869	22.218170	193.491852
842.067749	-85.635391	-12.522700	208.332367
842.458862	-93.091835	-52.251621	158.849884
842.849976	50.898319	-17.487295	225.641846
843.241028	3.767967	12.294271	153.899338
843.632019	-73.210014	44.540775	101.895126
844.022949	-35.950069	44.540775	126.664719
844.413879	-60.787434	94.116913	121.711555
844.804749	-38.433235	99.072197	126.664719
845.195496	-70.725372	37.100838	119.234825
845.586182	-6.159030	7.331765	101.895126
845.976807	-83.150078	37.100838	116.758133
846.367432	-73.210014	59.417999	151.424057
846.757996	-68.240692	-0.112843	161.324860
847.148499	38.499279	-2.594633	161.324860
847.538879	36.019108	-32.383865	124.188194
847.929260	-30.983778	79.248306	183.595993
848.319641	-1.195390	-24.935040	57.284451
848.709839	-98.063286	-34.866882	109.327148
849.100098	6.249354	76.769966	82.072296
849.490234	-23.535265	-0.112843	156.374664
849.880310	1.286340	-10.040493	136.569550
850.270325	-70.725372	-5.076527	143.997330
850.660339	-38.433235	2.368707	176.173309
851.050171	-35.950069	54.459293	275.070770
851.440125	-26.018044	-62.188099	629.829163
851.829895	-70.725372	56.938694	999.819336
852.219604	-16.087700	24.698919	1090.182861
852.609314	-6.159030	-12.522700	1411.660278
852.998901	-8.641074	-47.284084	1397.077148
853.388550	-6.159030	-15.005013	1375.197754
853.778015	-85.635391	69.334038	1290.050781
854.167480	8.730772	-34.866882	1021.810181
854.556885	-26.018044	-79.580978	860.386108
854.946228	-75.694908	32.140408	696.133057
855.335571	-73.210014	69.334038	553.621216
855.724731	-35.950069	51.979916	494.560669
856.113953	-53.335133	12.294271	408.334503
856.503052	60.815777	34.620743	356.543060
856.892151	-73.210014	71.812691	393.541260
857.281067	-73.210014	-5.076527	334.333984
857.670105	-50.851192	29.659971	203.385834
858.058960	-70.725372	14.775435	255.303879
858.447754	3.767967	34.620743	225.641846
858.836609	-40.916641	-10.040493	272.600220
859.225281	-55.819035	49.500305	240.474625
859.613892	-8.641074	7.331765	139.045578
860.002502	-45.883778	32.140408	141.521515
860.391052	-6.159030	69.334038	148.948532
860.779541	-45.883778	27.179428	171.224182
861.167969	-150.290024	76.769966	141.521515
861.556335	-103.035301	74.291382	89.506638
861.944702	43.459179	61.897060	82.072296
862.332947	3.767967	54.459293	101.895126
862.721069	-13.605341	61.897060	188.544113
863.109253	-63.271660	-54.735619	134.093567
863.497314	-21.052593	-72.126274	131.617340
863.885376	-85.635391	7.331765	106.849907
864.273315	-18.570162	-37.350140	94.462311
864.661255	-33.466869	-22.452444	91.984589
865.049072	-50.851192	-2.594633	74.637039
865.436890	-18.570162	2.368707	109.327148
865.824707	-80.664864	54.459293	79.593933
866.212280	3.767967	-54.735619	166.274796
866.599915	-63.271660	-19.969816	91.984589
866.987488	33.538830	4.850288	114.281197
867.375061	-18.570162	9.813137	141.521515
867.762451	-1.195390	113.935760	136.569550
868.149841	-21.052593	19.737318	124.188194
868.537170	3.767967	56.938694	101.895126
868.924438	-6.159030	-19.969816	59.763603
869.311707	11.212086	-24.935040	74.637039
869.698853	-95.577576	54.459293	49.846104
870.085938	-103.035301	51.979916	69.679588
870.472961	-50.851192	-0.112843	89.506638
870.859985	-13.605341	111.458847	74.637039
871.246887	8.730772	-34.866882	89.506638
871.633789	28.578102	47.020592	49.846104
872.020569	-43.400158	9.813137	44.886604
872.407349	-28.500927	-27.417875	64.721870
872.794067	-3.677091	-12.522700	20.083288
873.180725	-90.606194	39.580967	74.637039
873.567322	-68.240692	-2.594633	91.984589
873.953796	-58.303181	-12.522700	32.486309
874.340332	-55.819035	-10.040493	79.593933
874.726624	-3.677091	89.161072	82.072296
875.113037	-33.466869	37.100838	186.070114
875.499329	-35.950069	49.500305	193.491852
875.885559	-93.091835	4.850288	265.188232
876.271729	-35.950069	86.683006	334.333984
876.657898	-11.123223	7.331765	247.889832
877.044006	18.655268	61.897060	277.541199
877.429932	-80.664864	9.813137	195.965561
877.815918	-26.018044	-2.594633	257.775116
878.201782	-40.916641	14.775435	178.647736
878.587585	-45.883778	56.938694	134.093567
878.973389	-78.179901	9.813137	77.115471
879.359070	-40.916641	22.218170	47.366405
879.744751	-80.664864	-39.833500	52.325565
880.130310	-16.087700	-49.767868	32.486309
880.515930	-1.195390	9.813137	104.372566
880.901367	13.693295	22.218170	84.550423
881.286804	13.693295	49.500305	-17.141241
881.672180	13.693295	-54.735619	109.327148
882.057434	-18.570162	-2.594633	-37.003830
882.442749	-80.664864	37.100838	27.525356
882.827942	11.212086	44.540775	77.115471
883.213013	-83.150078	-15.005013	44.886604
883.598145	-48.367363	-10.040493	54.805061
883.983154	-30.983778	-64.672516	-41.970631
884.368042	-33.466869	76.769966	57.284451
884.753052	-16.087700	-104.436981	-59.357483
885.137817	-28.500927	7.331765	-46.937717
885.522644	33.538830	-7.558390	15.121435
885.907349	26.097515	2.368707	67.200844
886.292053	-16.087700	-49.767868	20.083288
886.676636	-125.414253	-12.522700	77.115471
887.061157	-85.635391	42.060989	34.966492
887.445740	-3.677091	-59.703789	39.926823
887.830078	-16.087700	4.850288	27.525356
888.214539	-6.159030	27.179428	47.366405
888.598816	-35.950069	-47.284084	87.028587
888.983093	-55.819035	64.376160	-22.106224
889.367249	-28.500927	34.620743	67.200844
889.751465	-68.240692	71.812691	39.926823
890.135498	-43.400158	74.291382	-9.694348
890.519531	-11.123223	24.698919	57.284451
890.903503	-40.916641	71.812691	42.406696
891.287415	-120.440453	-2.594633	-17.141241
891.671326	-98.063286	-15.005013	-41.970631
892.055054	-21.052593	51.979916	79.593933
892.438843	-48.367363	42.060989	57.284451
892.822510	-85.635391	-22.452444	17.602346
893.206116	-16.087700	49.500305	106.849907
893.589661	-16.087700	-17.487295	247.889832
893.973206	-103.035301	-7.558390	336.801819
894.356628	-45.883778	-27.417875	615.086060
894.739990	1.286340	4.850288	629.829163
895.123352	-40.916641	-116.869057	718.219910
895.506592	-3.677091	29.659971	723.127197
895.889832	26.097515	42.060989	597.881653
896.272949	-26.018044	42.060989	430.518036
896.656067	23.616825	17.256495	445.302734
897.039063	-11.123223	-47.284084	405.869171
897.422058	-26.018044	-2.594633	235.530670
897.804993	-11.123223	-0.112843	233.058807
898.187866	-11.123223	-24.935040	220.696701
898.570618	43.459179	42.060989	104.372566
898.953369	1.286340	-54.735619	134.093567
899.336121	-103.035301	-22.452444	111.804153
899.718689	-105.521469	-29.900818	74.637039
900.101257	-70.725372	-12.522700	57.284451
900.483704	-18.570162	9.813137	89.506638
900.866211	-16.087700	-62.188099	37.446709
901.248596	-6.159030	-44.800404	91.984589
901.630920	-33.466869	-44.800404	67.200844
902.013184	-3.677091	-101.950867	67.200844
902.395386	-18.570162	12.294271	7.677809
902.777588	-13.605341	-84.551277	44.886604
903.159668	-40.916641	34.620743	74.637039
903.541687	-21.052593	39.580967	89.506638
903.923645	-33.466869	-0.112843	82.072296
904.305603	-18.570162	32.140408	146.472916
904.687500	-43.400158	32.140408	134.093567
905.069275	13.693295	-44.800404	148.948532
905.451050	-30.983778	-2.594633	69.679588
905.832642	-100.549232	-39.833500	59.763603
906.214294	33.538830	-37.350140	52.325565
906.595825	-26.018044	61.897060	22.564127
906.977417	-90.606194	-19.969816	47.366405
907.358826	6.249354	24.698919	47.366405
907.740234	-13.605341	-19.969816	22.564127
908.121582	16.174267	17.256495	89.506638
908.502869	-11.123223	-27.417875	22.564127
908.884033	1.286340	-54.735619	-14.658838
909.265198	-13.605341	4.850288	89.506638
909.646301	-16.087700	22.218170	62.242786
910.027344	18.655268	-49.767868	74.637039
910.408325	-40.916641	22.218170	49.846104
910.789246	-63.271660	-49.767868	104.372566
911.170105	-98.063286	24.698919	7.677809
911.550903	-58.303181	39.580967	72.158363
911.931641	-11.123223	17.256495	-37.003830
912.312317	-33.466869	-32.383865	-19.623613
912.692932	-26.018044	-29.900818	-17.141241
913.073547	-35.950069	14.775435	-44.454052
913.453979	31.058451	-24.935040	20.083288
913.834473	-80.664864	-42.316833	74.637039
914.214783	-75.694908	19.737318	-9.694348
914.595154	-26.018044	19.737318	82.072296
914.975464	-117.953644	44.540775	12.640285
915.355652	-137.850861	-12.522700	47.366405
915.735840	-60.787434	-37.350140	15.121435
916.115845	-55.819035	-17.487295	101.895126
916.495972	-50.851192	2.368707	104.372566
916.875854	-78.179901	-0.112843	213.278519
917.255859	-28.500927	-7.558390	351.608551
917.635620	-40.916641	-129.303680	351.608551
918.015503	3.767967	-24.935040	344.205627
918.395203	-55.819035	-22.452444	319.523224
918.774902	-50.851192	22.218170	267.658813
919.154480	-30.983778	2.368707	233.058807
919.534058	-63.271660	32.140408	223.169327
919.913574	-16.087700	81.726685	114.281197
920.292969	-18.570162	29.659971	193.491852
920.672363	-16.087700	7.331765	213.278519
921.051636	-68.240692	39.580967	166.274796
921.430969	-50.851192	-27.417875	178.647736
921.810181	-45.883778	-49.767868	121.711555
922.189331	-58.303181	-24.935040	49.846104
922.568420	18.655268	-5.076527	44.886604
922.947388	-85.635391	24.698919	-66.810555
923.326416	-30.983778	42.060989	22.564127
923.705261	16.174267	7.331765	74.637039
924.084106	-13.605341	-10.040493	96.940063
924.462891	-58.303181	44.540775	15.121435
924.841675	-40.916641	-27.417875	-14.658838
925.220337	3.767967	49.500305	15.121435
925.598938	-60.787434	-19.969816	111.804153
925.977478	-83.150078	49.500305	42.406696
926.355957	-33.466869	47.020592	47.366405
926.734436	-55.819035	-17.487295	-4.730410
927.112732	-8.641074	-52.251621	104.372566
927.491089	-68.240692	-15.005013	72.158363
927.869324	-21.052593	-17.487295	-34.520721
928.247559	-21.052593	22.218170	42.406696
928.625671	23.616825	81.726685	-4.730410
929.003723	3.767967	-52.251621	27.525356
929.381775	1.286340	-39.833500	-51.905361
929.759705	-63.271660	-19.969816	37.446709
930.137634	-38.433235	-54.735619	-41.970631
930.515381	-70.725372	-37.350140	52.325565
930.893250	-55.819035	-67.156906	-44.454052
931.270935	-48.367363	-27.417875	-86.690048
931.648560	-3.677091	-2.594633	20.083288
932.026123	-35.950069	-19.969816	-27.071629
932.403687	11.212086	-22.452444	-12.176540
932.781250	3.767967	-52.251621	5.196346
933.158630	-26.018044	-39.833500	-7.212394
933.536011	-60.787434	14.775435	-84.204826
933.913208	-50.851192	2.368707	15.121435
934.290527	-73.210014	76.769966	-2.248531
934.667664	8.730772	29.659971	-39.487179
935.044800	50.898319	86.683006	96.940063
935.421814	40.979210	42.060989	2.714780
935.798889	-68.240692	32.140408	-37.003830
936.175842	6.249354	54.459293	44.886604
936.552673	-30.983778	-94.493279	47.366405
936.929504	-30.983778	-64.672516	-19.623613
937.306274	-137.850861	-89.522133	-2.248531
937.683044	28.578102	-39.833500	25.044725
938.059570	-85.635391	-24.935040	30.005882
938.436218	6.249354	-27.417875	-4.730410
938.812744	-43.400158	27.179428	37.446709
939.189148	-70.725372	-22.452444	-49.421486
939.565613	-13.605341	14.775435	-79.234428
939.941956	-8.641074	-47.284084	32.486309
940.318237	-63.271660	12.294271	44.886604
940.694458	-3.677091	-7.558390	34.966492
941.070557	11.212086	-37.350140	27.525356
941.446655	-30.983778	22.218170	62.242786
941.822693	-23.535265	-32.383865	-51.905361
942.198669	-3.677091	19.737318	-34.520721
942.574646	-1.195390	-74.611115	-34.520721
942.950562	-33.466869	-22.452444	-123.982704
943.326294	-30.983778	-89.522133	-64.326050
943.702026	28.578102	-64.672516	-61.841648
944.077698	-33.466869	-129.303680	-59.357483
944.453369	-53.335133	14.775435	-84.204826
944.828918	-45.883778	-39.833500	-7.212394
945.204468	-33.466869	-79.580978	-84.204826
945.579834	-68.240692	-2.594633	82.072296
945.955261	-33.466869	-2.594633	-37.003830
946.330627	-78.179901	24.698919	-14.658838
946.705811	16.174267	-37.350140	-79.234428
947.081055	21.136166	-72.126274	-32.037586
947.456177	-38.433235	-2.594633	-79.234428
947.831238	-55.819035	-44.800404	0.233109
948.206238	-53.335133	-89.522133	-32.037586
948.581238	-45.883778	-57.219715	22.564127
948.956116	3.767967	14.775435	-7.212394
949.330933	-78.179901	-37.350140	-34.520721
949.705811	-30.983778	17.256495	64.721870
950.080505	-73.210014	47.020592	57.284451
950.455139	-55.819035	-69.641533	-41.970631
950.829773	-85.635391	7.331765	-34.520721
951.204346	-16.087700	89.161072	0.233109
951.578735	-73.210014	-0.112843	-14.658838
951.953186	-83.150078	-59.703789	20.083288
952.327515	3.767967	-44.800404	-12.176540
952.701843	-48.367363	2.368707	-14.658838
953.076172	-33.466869	-22.452444	-9.694348
953.450195	90.558159	37.100838	-51.905361
953.824341	-38.433235	-0.112843	-59.357483
954.198486	-50.851192	-37.350140	-12.176540
954.572449	-35.950069	4.850288	-32.037586
954.946350	21.136166	-96.979080	-24.588942
955.320251	-11.123223	12.294271	49.846104
955.694092	-50.851192	-129.303680	-84.204826
956.067871	-11.123223	-79.580978	-44.454052
956.441589	-11.123223	-69.641533	0.233109
956.815125	11.212086	-62.188099	-29.554554
957.188721	-80.664864	-12.522700	-9.694348
957.562256	1.286340	-52.251621	-29.554554
957.935730	-8.641074	-32.383865	5.196346
958.309021	3.767967	-52.251621	-9.694348
958.682373	-35.950069	-82.066147	-37.003830
959.055664	-23.535265	-69.641533	-9.694348
959.428955	-65.756126	-77.095932	-4.730410
959.802063	-65.756126	-22.452444	-9.694348
960.175110	8.730772	-79.580978	42.406696
960.548157	-55.819035	-34.866882	-37.003830
960.921143	-105.521469	-10.040493	-94.146767
961.294128	26.097515	-12.522700	27.525356
961.666809	-145.314056	-34.866882	-39.487179
962.039612	-11.123223	-7.558390	-34.520721
962.412415	-105.521469	-82.066147	32.486309
962.785095	-63.271660	-64.672516	54.805061
963.157715	-105.521469	66.855148	-41.970631
963.530151	-73.210014	-15.005013	-19.623613
963.902649	-95.577576	12.294271	20.083288
964.275146	-50.851192	-24.935040	-74.264587
964.647522	-63.271660	-72.126274	-84.204826
965.019714	-40.916641	-44.800404	15.121435
965.392029	-55.819035	-39.833500	2.714780
965.764160	-60.787434	-104.436981	-2.248531
966.136292	-53.335133	-77.095932	-101.604309
966.508423	-100.549232	-89.522133	-44.454052
966.880371	-53.335133	-59.703789	15.121435
967.252319	-21.052593	-29.900818	-12.176540
967.624207	-33.466869	-7.558390	-44.454052
967.996094	-3.677091	-77.095932	52.325565
968.367737	-48.367363	-29.900818	17.602346
968.739441	1.286340	-44.800404	-22.106224
969.111084	33.538830	-15.005013	-22.106224
969.482666	8.730772	12.294271	-29.554554
969.854248	-70.725372	-0.112843	12.640285
970.225586	-80.664864	-15.005013	-32.037586
970.596985	53.377872	-72.126274	-4.730410
970.968323	-30.983778	-49.767868	-9.694348
971.339661	-23.535265	-64.672516	-84.204826
971.710754	-83.150078	-82.066147	-74.264587
972.081909	-88.120804	-39.833500	-24.588942
972.453064	-18.570162	-15.005013	-69.295036
972.824097	-28.500927	37.100838	0.233109
973.194946	-103.035301	-59.703789	-9.694348
973.565918	-23.535265	56.938694	47.366405
973.936768	55.857323	-7.558390	15.121435
974.307556	-23.535265	24.698919	-17.141241
974.678284	-105.521469	19.737318	39.926823
975.048828	-75.694908	-67.156906	25.044725
975.419495	-28.500927	-59.703789	-4.730410
975.790039	16.174267	-47.284084	-37.003830
976.160522	-55.819035	-104.436981	12.640285
976.530884	-38.433235	29.659971	-17.141241
976.901245	-98.063286	-12.522700	7.677809
977.271606	-127.901390	-15.005013	-12.176540
977.641846	-60.787434	24.698919	-2.248531
978.012024	-30.983778	-24.935040	-104.090279
978.382019	-16.087700	-42.316833	-96.632416
978.752136	-55.819035	-12.522700	-34.520721
979.122131	-40.916641	-44.800404	-46.937717
979.492065	11.212086	-24.935040	-34.520721
979.861877	-26.018044	-22.452444	10.159032
980.231689	-38.433235	-37.350140	-69.295036
980.601440	-100.549232	9.813137	-46.937717
980.971191	-38.433235	2.368707	-49.421486
981.340820	3.767967	-64.672516	-56.873291
981.710266	-38.433235	32.140408	-12.176540
982.079773	-50.851192	-94.493279	-34.520721
982.449280	28.578102	-54.735619	27.525356
982.818604	-55.819035	-39.833500	42.406696
983.187866	-13.605341	9.813137	-54.389206
983.557129	-40.916641	-34.866882	-41.970631
983.926331	-21.052593	-62.188099	-19.623613
984.295471	-35.950069	-39.833500	-9.694348
984.664612	-16.087700	-67.156906	-29.554554
985.033569	-80.664864	-10.040493	2.714780
985.402527	6.249354	-84.551277	-12.176540
985.771362	-18.570162	-19.969816	5.196346
986.140259	-18.570162	-10.040493	-22.106224
986.508911	-38.433235	-22.452444	-9.694348
986.877625	-16.087700	12.294271	-74.264587
987.246277	1.286340	-49.767868	-7.212394
987.614929	-53.335133	-15.005013	-37.003830
987.983459	-53.335133	-54.735619	7.677809
988.351807	28.578102	-10.040493	12.640285
988.720215	-63.271660	-37.350140	-12.176540
989.088623	1.286340	-131.790985	5.196346
989.456909	6.249354	-74.611115	17.602346
989.825012	-26.018044	-59.703789	30.005882
990.193115	-43.400158	-34.866882	22.564127
990.561279	-60.787434	-17.487295	-84.204826
990.929321	-16.087700	-37.350140	-17.141241
991.297302	-95.577576	-49.767868	-29.554554
991.665100	8.730772	-79.580978	-39.487179
992.033020	16.174267	17.256495	32.486309
992.400818	-53.335133	42.060989	-27.071629
992.768494	26.097515	-17.487295	-76.749519
993.136047	8.730772	-57.219715	-46.937717
993.503723	-13.605341	-10.040493	-32.037586
993.871277	-70.725372	-54.735619	5.196346
994.238770	-103.035301	-69.641533	-29.554554
994.606140	-70.725372	-64.672516	-39.487179
994.973450	-30.983778	-57.219715	-71.779762
995.340759	-50.851192	-47.284084	-19.623613
995.708008	-45.883778	-106.923210	-51.905361
996.075195	3.767967	-52.251621	-84.204826
996.442200	-55.819035	7.331765	-34.520721
996.809265	-38.433235	-10.040493	-19.623613
997.176270	26.097515	34.620743	10.159032
997.543152	-30.983778	14.775435	-7.212394
997.910095	-43.400158	-24.935040	-12.176540
998.276733	-83.150078	29.659971	-9.694348
998.643494	8.730772	-19.969816	-7.212394
999.010193	-26.018044	-69.641533	-104.090279
999.376831	-80.664864	-111.895851	-44.454052
999.743286	-40.916641	4.850288	-69.295036
1000.109802	-60.787434	-5.076527	47.366405
1000.476257	8.730772	-124.329529	2.714780
1000.842651	-28.500927	9.813137	-4.730410
1001.208923	65.773827	-17.487295	-56.873291
1001.575134	-30.983778	-52.251621	5.196346
1001.941284	-105.521469	-52.251621	-37.003830
1002.307434	-93.091835	-74.611115	0.233109
1002.673523	78.167336	-96.979080	-37.003830
1003.039429	-26.018044	-84.551277	54.805061
1003.405334	-40.916641	-104.436981	32.486309
1003.771179	-70.725372	-24.935040	-7.212394
1004.137024	-115.466934	-32.383865	59.763603
1004.502808	-45.883778	17.256495	-69.295036
1004.868408	-93.091835	-27.417875	0.233109
1005.234009	-73.210014	-44.800404	22.564127
1005.599609	-115.466934	-34.866882	-61.841648
1005.965149	-55.819035	-10.040493	-96.632416
1006.330444	-70.725372	-54.735619	-22.106224
1006.695862	-3.677091	-47.284084	-64.326050
1007.061218	-28.500927	2.368707	5.196346
1007.426453	-3.677091	-47.284084	-61.841648
1007.791626	43.459179	-7.558390	12.640285
1008.156677	-43.400158	-32.383865	-17.141241
1008.521729	-78.179901	-49.767868	-66.810555
1008.886780	-40.916641	-29.900818	-46.937717
1009.251709	-58.303181	4.850288	0.233109
1009.616577	-105.521469	-27.417875	-4.730410
1009.981384	-127.901390	-79.580978	-44.454052
1010.346130	-35.950069	-104.436981	-69.295036
1010.710754	-40.916641	-29.900818	-29.554554
1011.075439	21.136166	-37.350140	-54.389206
1011.439941	-65.756126	-47.284084	22.564127
1011.804443	-50.851192	-7.558390	-22.106224
1012.168884	11.212086	-47.284084	-2.248531
1012.533325	45.939041	-42.316833	-4.730410
1012.897522	-18.570162	-82.066147	-69.295036
1013.261780	-13.605341	-17.487295	5.196346
1013.626038	-43.400158	-10.040493	-69.295036
1013.990112	28.578102	-22.452444	-7.212394
1014.354187	16.174267	-19.969816	-9.694348
1014.718140	-63.271660	-0.112843	-14.658838
1015.082153	-11.123223	17.256495	-51.905361
1015.446045	-11.123223	-39.833500	17.602346
1015.809937	-13.605341	-5.076527	-4.730410
1016.173523	-63.271660	-24.935040	-51.905361
1016.537170	-33.466869	-39.833500	7.677809
1016.900879	3.767967	-72.126274	-2.248531
1017.264404	-3.677091	-39.833500	15.121435
1017.627991	-75.694908	-104.436981	27.525356
1017.991333	-78.179901	-57.219715	2.714780
1018.354675	-88.120804	-69.641533	-39.487179
1018.718018	-58.303181	-19.969816	42.406696
1019.081299	-53.335133	-49.767868	-44.454052
1019.444397	-88.120804	-52.251621	7.677809
1019.807495	-73.210014	-79.580978	-9.694348
1020.170593	-3.677091	2.368707	2.714780
1020.533691	-53.335133	-0.112843	-14.658838
1020.896606	-38.433235	-12.522700	-89.175514
1021.259460	-95.577576	-17.487295	-7.212394
1021.622253	-43.400158	-54.735619	-51.905361
1021.985046	-83.150078	-94.493279	-56.873291
1022.347778	-75.694908	-32.383865	-94.146767
1022.710327	53.377872	-52.251621	2.714780
1023.072876	26.097515	-79.580978	-2.248531
1023.435364	-33.466869	-62.188099	-49.421486
1023.797852	-53.335133	-57.219715	12.640285
1024.160278	-80.664864	-47.284084	12.640285
1024.522461	-85.635391	-74.611115	-136.418991
1024.884766	-63.271660	-141.741119	64.721870
1025.246948	-26.018044	-37.350140	-14.658838
1025.609131	-80.664864	-69.641533	-12.176540
1025.971069	-33.466869	-99.464981	-64.326050
1026.333130	-18.570162	-54.735619	25.044725
1026.694946	-1.195390	-64.672516	-24.588942
1027.056885	-50.851192	-34.866882	-37.003830
1027.418823	-11.123223	74.291382	-81.719574
1027.780396	8.730772	-69.641533	20.083288
1028.142090	-3.677091	-12.522700	-12.176540
1028.503784	-135.363297	-44.800404	-4.730410
1028.865479	-110.493988	-74.611115	-24.588942
1029.226807	-8.641074	-42.316833	-51.905361
1029.588135	-48.367363	-34.866882	-56.873291
1029.949707	-40.916641	-17.487295	-96.632416
1030.310913	-8.641074	-17.487295	-9.694348
1030.672241	-21.052593	-15.005013	-59.357483
1031.033325	-90.606194	-0.112843	2.714780
1031.394531	-68.240692	-39.833500	10.159032
1031.755493	-58.303181	-37.350140	7.677809
1032.116577	-45.883778	56.938694	-22.106224
1032.477417	-135.363297	-89.522133	34.966492
1032.838257	1.286340	-32.383865	-32.037586
1033.199097	11.212086	-0.112843	-59.357483
1033.559937	53.377872	-52.251621	-22.106224
1033.920654	-28.500927	-74.611115	-9.694348
1034.281128	-63.271660	-19.969816	-84.204826
1034.641724	-11.123223	-17.487295	5.196346
1035.002197	-30.983778	-99.464981	-24.588942
1035.362671	43.459179	-52.251621	-44.454052
1035.722900	3.767967	91.639038	-7.212394
1036.083252	-33.466869	69.334038	-69.295036
1036.443481	-95.577576	-59.703789	0.233109
1036.803711	-65.756126	-77.095932	-86.690048
1037.163940	90.558159	-39.833500	-84.204826
1037.523804	11.212086	-5.076527	-24.588942
1037.883789	-93.091835	-27.417875	-64.326050
1038.243774	-26.018044	17.256495	-4.730410
1038.603638	-68.240692	-57.219715	17.602346
1038.963257	-35.950069	-10.040493	-59.357483
1039.323120	-13.605341	-22.452444	20.083288
1039.682861	36.019108	2.368707	-94.146767
>>>>>End Processed Spectral Data<<<<<
