Jaz Data File
++++++++++++++++++++++++++++++++++++
Date: Tue Dec 02 20:25:18 2014
User: jaz
Dark Spectrum Present: Yes
Reference Spectrum Present: Yes
Processed Spectrum Present: No
Spectrometers: JAZA2310
Integration Time (usec): 44400 (JAZA2310)
Spectra Averaged: 5 (JAZA2310)
Boxcar Smoothing: 0 (JAZA2310)
Correct for Electrical Dark: Yes (JAZA2310)
Strobe/Lamp Enabled: No (JAZA2310)
Correct for Detector Non-linearity: Yes (JAZA2310)
Correct for Stray Light: No (JAZA2310)
Number of Pixels in Processed Spectrum: 2048
>>>>>Begin Processed Spectral Data<<<<<
W	D	R	S
188.301102	0.000000	0.000000	0.000000
188.764923	0.000000	0.000000	0.000000
189.228699	-84.867722	-49.609943	-63.142750
189.692459	-60.516792	-50.603428	-53.205975
190.156158	-19.789289	10.467001	-19.930660
190.619812	-41.639698	-26.266920	-55.193218
191.083435	-18.299713	-32.722443	-32.841293
191.547043	-13.335050	-29.246378	-34.827713
192.010590	-28.727127	-15.840215	6.378246
192.474091	1.556563	-17.825926	-10.994158
192.937561	20.910156	13.940790	1.415378
193.401001	40.257298	23.368292	43.092167
193.864410	17.436775	52.633316	-0.570156
194.327759	35.296860	9.970902	10.844875
194.791077	31.328537	18.406445	24.241932
195.254349	5.527016	4.511652	30.691364
195.717575	43.233253	36.266506	19.280293
196.180786	28.848202	-15.343629	41.604137
196.643951	6.519554	11.459455	28.706945
197.107071	4.038043	6.000613	5.385705
197.570145	5.527016	9.474395	9.356036
198.033203	19.421570	11.955677	-24.399351
198.496216	6.519689	6.993278	21.761166
198.959167	0.067625	21.879768	-2.059013
199.422089	23.390959	13.444450	7.370904
199.884979	-27.734011	10.467001	-4.044528
200.347855	-14.824499	12.948242	18.784267
200.810654	-30.713543	7.489536	0.918933
201.273422	-24.257833	-17.329592	6.874510
201.736160	10.985903	11.955812	-2.059013
202.198853	-33.196354	-8.393486	-17.448139
202.661514	-22.768415	-1.940632	-24.399351
203.124130	-26.740778	12.452029	-23.902964
203.586700	-22.271906	-17.329592	-20.923643
204.049240	-39.156391	-34.708996	-2.059283
204.511734	-18.299713	-17.329592	9.356036
204.974197	-34.686443	-19.811972	-22.909660
205.436615	-59.026451	-26.266920	-26.385622
205.899002	-33.693089	-2.436970	-14.965858
206.361343	-31.210123	-33.219177	-31.351385
206.823654	-36.176296	-22.791101	-45.257931
207.285919	-41.639561	-13.854300	-39.794193
207.748123	-41.142891	-26.266920	-37.310833
208.210327	-57.039074	-35.702366	-40.787651
208.672485	-32.699757	-40.172256	-13.972976
209.134583	-32.699757	-5.415085	-51.715816
209.596649	-32.203163	-29.743082	-31.847973
210.058670	-11.349221	-21.301584	-33.337891
210.520676	-38.162968	-33.219040	-61.155098
210.982635	-37.169689	-18.818872	-64.136467
211.444534	-38.659473	-23.287479	-18.441080
211.906403	-42.136234	-54.577679	-53.702744
212.368240	14.459392	-31.729261	-13.972976
212.830048	-53.064522	7.489536	-51.715816
213.291779	-54.554977	-15.840079	-26.881895
213.753494	-33.196487	-47.622887	-54.199654
214.215179	-34.686443	-9.386410	-34.331100
214.676819	-35.183056	-26.266920	-30.358091
215.138412	6.023287	-24.280519	-33.834496
215.599960	-63.994991	-37.688747	-27.378714
216.061493	-40.149567	-48.616470	-34.331238
216.522949	-45.116634	-5.415085	-36.317707
216.984406	-28.230433	-3.429658	-49.231953
217.445801	-15.320946	-38.185658	-72.584152
217.907166	-25.747831	-29.246378	-28.868519
218.368484	-34.686306	-15.343763	-32.344563
218.829773	-30.713543	-12.364876	-55.690006
219.291031	-42.633049	-26.266920	5.881978
219.752228	-48.096912	-14.350604	-39.794193
220.213379	-11.349492	-22.294592	-35.324192
220.674500	-61.510601	2.526357	-16.455080
221.135574	-10.852809	-18.322397	-18.441080
221.596634	-33.693089	5.008066	-43.271156
222.057648	-2.910634	0.044948	-11.987125
222.518600	9.000826	-39.675735	-27.378714
222.979553	-8.370806	-24.777182	10.348510
223.440430	-10.356535	-28.749815	6.874645
223.901276	0.067625	-55.074463	-26.385622
224.362076	-17.306639	-0.451508	-28.371689
224.822845	-44.619934	-41.165585	-24.895880
225.283569	-32.203163	-24.777182	-60.658260
225.744278	-23.761581	-16.336670	-7.519106
226.204910	-41.639698	-6.408094	-19.434038
226.665512	-28.727127	-16.336670	-30.358091
227.126114	-23.265064	-17.329592	-32.344563
227.586639	-7.378035	-37.192379	-25.888947
228.047119	-39.653046	-11.868320	-43.767712
228.507568	-19.292669	3.022923	-9.008408
228.967972	-15.817397	3.519080	-32.344563
229.428345	-26.244236	-17.825926	-2.555352
229.888687	-35.183056	-11.868590	-8.512150
230.348984	-31.706573	-18.322397	-15.462306
230.809219	-4.399550	-19.811972	-17.448139
231.269440	-63.001274	-46.629314	-49.231953
231.729614	-1.421486	-59.049149	-50.722046
232.189758	-42.136234	2.526627	-22.413284
232.649841	-13.831484	-4.918587	-47.741627
233.109894	-43.626549	-25.770515	-26.882166
233.569901	-44.122971	-3.925874	-34.827713
234.029892	-23.264793	-20.308731	-2.555352
234.489822	-28.727127	-38.682167	-30.358091
234.949707	-37.666325	2.526357	-5.037379
235.409561	-19.789289	-13.854166	-32.841293
235.869385	-0.925157	-24.280790	-20.923643
236.329163	13.467122	-22.791101	-25.888947
236.788895	-43.626415	-22.294592	-16.951540
237.248581	-13.335050	-39.178814	-39.794193
237.708237	-60.516792	-17.329592	-64.633194
238.167847	-39.653046	5.504342	-41.284317
238.627441	-39.156124	-4.918857	-46.251343
239.086960	-50.580730	-3.429658	-25.888947
239.546463	-37.169418	-5.415085	-27.875267
240.005920	-47.103470	-57.061771	-22.909660
240.465332	-35.679676	-51.100040	-32.344833
240.924698	-38.659473	-31.729261	-20.427149
241.384033	-30.713272	14.436991	-52.709206
241.843338	-32.203163	-24.777182	13.822036
242.302597	-37.666325	-4.918587	-40.290852
242.761810	-12.838620	-3.925874	-47.741627
243.220993	-3.406980	6.496880	-50.722313
243.680115	1.060254	-55.074463	-30.358362
244.139221	-17.306910	-8.889878	-45.257931
244.598282	-28.727127	-4.918857	-14.469415
245.057297	-15.817397	-10.379215	-26.385622
245.516266	-38.659473	-55.074463	-39.794193
245.975189	-30.713543	-22.791101	-29.861519
246.434082	-6.881655	-31.729261	-31.351385
246.892944	-29.223690	5.008066	-22.909660
247.351761	-17.803242	-19.811972	-40.787651
247.810516	-31.210123	-36.198986	-24.399351
248.269272	-38.162968	-3.925874	-31.847973
248.727951	-30.713272	5.504342	-29.365084
249.186600	-15.817397	-27.756563	-70.596306
249.645218	-16.810446	15.429379	-48.238354
250.103790	-37.666325	-33.219177	-10.497748
250.562317	-25.251026	-41.165585	-11.986991
251.020813	-18.299713	3.022923	-12.979976
251.479279	-29.223690	-21.798086	-8.512150
251.937668	-9.363729	-39.179085	-15.462306
252.396057	-41.143162	-21.798086	-25.888947
252.854385	-25.251026	-41.165585	-11.987125
253.312683	-29.720259	-28.749815	-21.916779
253.770920	-28.230433	-7.400714	-57.180534
254.229126	2.052732	-16.336670	-11.490572
254.687302	-39.653046	-19.811972	-14.965858
255.145432	-11.349492	-6.904335	-51.715549
255.603500	-27.734011	-13.357732	-15.462306
256.061584	-25.747831	-18.322397	12.333407
256.519592	-44.619934	-15.840079	-8.512150
256.977570	-32.700024	2.526357	-61.652069
257.435455	-33.693089	-0.451373	-16.951540
257.893372	-0.925157	-16.336670	-40.290985
258.351196	-29.720394	-23.783998	-7.022860
258.808990	-16.313986	-69.980469	6.874510
259.266754	-16.313717	-6.904200	-38.800892
259.724487	-8.867198	6.496880	-28.868519
260.182190	-5.888773	-3.925874	-18.441080
260.639832	-36.672924	6.000613	-20.923643
261.097443	-13.335050	-28.749815	-31.847973
261.554993	-26.244236	-22.791101	-47.244774
262.012512	-44.619667	-5.911452	-29.365084
262.469971	-15.320946	-36.695614	-21.916779
262.927429	-2.910634	-49.609943	-35.324192
263.384827	-23.761581	-27.756563	-16.455080
263.842194	-26.740778	-30.239655	-2.555352
264.299530	-20.285776	-26.763466	-15.958623
264.756805	-26.740778	3.518945	-5.037379
265.214050	-26.740778	-13.357732	-31.847973
265.671234	-16.313986	2.030056	-8.512150
266.128387	-15.320946	-21.798086	-38.304111
266.585510	-26.244236	-17.825926	-29.365084
267.042572	-30.216967	-48.119881	-65.627205
267.499573	-26.244236	-1.940632	-32.841293
267.956604	-25.747831	-5.911452	-11.986991
268.413574	-8.867198	0.541265	-16.455080
268.870483	-57.039074	9.474395	-34.827713
269.327362	-21.775400	-5.911452	-61.652069
269.784180	-59.026180	12.452029	-31.847973
270.240936	-12.342196	-1.940632	3.896729
270.697693	-24.258104	-26.266920	-15.462306
271.154419	-59.523136	-45.635895	-50.225430
271.611053	-35.183056	-35.702366	-38.800892
272.067688	-61.510601	1.533887	-31.847973
272.524292	-26.740778	-17.825926	-37.311104
272.980835	10.489674	-32.226120	-67.614746
273.437347	-29.223690	4.511652	-49.728420
273.893799	-45.613201	-8.393486	-21.916779
274.350250	-42.136372	-15.343629	-41.284317
274.806610	-40.646225	-40.668919	-21.420277
275.262939	-37.666325	6.993278	-13.476406
275.719238	-21.278902	-32.225849	-16.455349
276.175507	-35.679676	-7.897098	-18.937693
276.631714	-13.335050	-8.889878	-33.337891
277.087891	-43.129730	3.022923	-42.774471
277.544067	-25.747831	-10.379215	-27.378714
278.000122	-69.957901	-23.784267	-61.155231
278.456177	-27.237595	1.037578	-5.037244
278.912201	-33.196487	-30.239655	-24.895880
279.368164	-34.686443	-0.947833	-36.814201
279.824097	-78.903145	-42.159061	-58.670830
280.279968	-59.523136	-26.763466	-20.427149
280.735840	-32.700024	-8.393486	-11.490572
281.191620	-71.945717	1.534022	-11.987125
281.647400	-38.162968	-12.364876	-7.022860
282.103149	17.437046	-39.178814	-43.271156
282.558838	-5.392406	-38.682438	-23.902695
283.014465	-3.903196	-28.749815	-8.512150
283.470062	-35.679676	-15.343629	-50.225430
283.925629	-18.796459	-19.812243	-48.238354
284.381134	-48.096912	-12.861301	-30.358091
284.836639	3.045328	-40.668919	-51.218796
285.292053	-1.917820	-40.668919	-48.735085
285.747467	-46.110176	-13.854300	-67.614746
286.202820	-47.600189	-4.918857	-46.748192
286.658142	-29.223690	-10.875489	-27.378714
287.113434	-38.162968	-8.393486	-37.807739
287.568634	-57.535877	-45.635895	-28.371689
288.023804	-23.264793	10.963230	-50.722046
288.478973	-16.810446	-32.225849	-49.728420
288.934113	-10.852809	-23.784267	-19.434174
289.389130	-18.299713	4.511921	-32.344833
289.844208	-15.320946	-20.308731	-32.841293
290.299164	-28.727127	-16.336399	-25.392681
290.754089	-38.659473	-27.260012	-28.868519
291.208984	-32.700024	-18.322397	-33.834496
291.663879	-0.428831	-2.933312	-41.780987
292.118683	-42.633049	-40.668919	-44.264400
292.573456	-24.754496	-14.350739	-36.814201
293.028198	-58.032551	-19.811972	-11.987125
293.482849	-12.838620	-26.763466	-5.533743
293.937561	-21.278902	-43.152424	-38.800892
294.392151	-25.251297	-37.689014	-8.512150
294.846741	-5.888773	16.421885	-37.310833
295.301239	-51.574371	-35.702366	-37.807739
295.755737	-25.251026	-15.343629	-14.469415
296.210175	-61.013760	18.406713	-18.937693
296.664581	-33.196487	-30.239655	-17.448139
297.118958	-27.237595	-15.840079	-28.868519
297.573242	-40.646225	-33.715778	-18.441080
298.027557	-34.686306	-25.770515	-10.001477
298.481812	-36.176296	-8.393486	-14.469415
298.935974	-29.720259	-27.756699	-11.986991
299.390137	-3.406980	-21.798086	-40.290985
299.844238	-14.824499	-54.080898	-44.264400
300.298340	-34.189697	-14.350739	-38.304245
300.752350	-73.933334	-24.280790	-30.358091
301.206360	-31.210123	-6.904200	-26.385622
301.660278	-36.176296	-7.400714	-17.448139
302.114197	-13.831484	-24.280790	-17.448139
302.568054	-5.889043	-42.158928	-0.570156
303.021881	-22.768415	-19.811972	-7.519106
303.475677	12.474701	3.022923	-42.277523
303.929413	-21.775400	-17.825926	-12.483548
304.383118	-4.896179	5.007931	-27.875401
304.836761	-24.257833	-38.185658	-10.497748
305.290375	-9.363460	-33.219177	-0.569886
305.743958	-51.574100	-25.770515	-30.854670
306.197510	-31.210123	-17.329592	-30.358362
306.650970	-43.626415	-17.825926	-44.264400
307.104431	-13.831619	-5.911452	-16.455080
307.557800	-15.320946	-13.854166	-60.161430
308.011169	-2.414292	-13.357732	-32.344563
308.464508	-40.149567	-21.301584	-35.821083
308.917755	-21.775400	-19.811836	-42.277523
309.371063	-63.498127	-8.393486	-14.469415
309.824219	-65.982605	-46.629314	-25.888947
310.277374	-25.251297	-11.372172	-23.902695
310.730499	-18.299713	-63.520828	-28.371958
311.183563	-45.116634	-34.709133	-46.251343
311.636597	-17.803242	-7.897098	-26.882166
312.089569	-41.639561	-24.280790	-47.741627
312.542511	-15.320946	-29.246378	-36.317707
312.995422	-26.244236	-9.882811	-21.916779
313.448273	-48.593777	10.467001	-40.787651
313.901093	-28.230433	6.000613	-43.271156
314.353882	-13.831484	-4.918857	-10.994158
314.806580	-60.516792	-13.854300	-6.030111
315.259308	-17.803242	-34.212387	-35.324463
315.711975	-37.666325	-12.364876	-38.800892
316.164581	-18.796459	3.022923	-23.406176
316.617126	-12.838620	-18.819143	-38.800892
317.069672	-39.156124	6.000613	-25.888947
317.522156	-19.789558	-22.791101	-29.861519
317.974579	-8.370806	-50.603428	-28.868519
318.427002	10.489674	-34.212658	-40.290985
318.879333	-34.686306	-17.825926	-35.820812
319.331665	-20.782270	-29.246513	-26.882166
319.783936	-16.313986	-19.811972	-51.715549
320.236176	-45.116634	-2.933042	-10.497613
320.688354	-22.271906	-29.742947	-23.902964
321.140503	-19.789289	-27.260012	-26.881895
321.592651	-43.129730	-29.246378	-36.317707
322.044647	-22.768415	-10.875489	-22.909660
322.496704	24.383064	-47.622887	-36.814201
322.948639	-17.306910	-25.273981	-23.406176
323.400604	-61.013760	-31.729261	-36.814201
323.852509	-53.064522	-12.364876	-36.317436
324.304352	-25.747831	3.022923	-11.987125
324.756165	-5.888773	-39.178814	-36.814201
325.207916	-9.363460	-25.770515	-46.748055
325.659668	-14.824499	-5.415085	-6.030111
326.111328	-15.817397	11.955812	-10.001477
326.562988	-9.363460	1.533887	-25.392410
327.014557	-4.895908	-40.172256	-50.225430
327.466156	-15.817397	1.533887	-14.469145
327.917664	-34.189697	2.526357	-42.774471
328.369110	-46.109909	-27.756699	-17.448004
328.820557	-8.370806	-39.179085	-48.735085
329.271942	-15.320946	-14.350739	-66.123817
329.723297	-6.385145	-23.287750	-18.937693
330.174561	-35.679676	5.504342	-35.324463
330.625854	-36.176296	-18.818872	-2.059013
331.077026	-35.182922	-18.322397	-30.358091
331.528229	-37.666325	-30.736231	-4.540884
331.979370	-4.399550	-30.239384	-38.800892
332.430450	-40.149567	12.948242	-24.895880
332.881500	-40.149567	-28.253254	-21.916779
333.332489	-41.639561	-34.709133	-30.854670
333.783478	-45.613201	-14.847182	-42.277523
334.234406	-11.845909	-30.239655	-44.264400
334.685303	-28.230566	-40.668919	-29.365084
335.136078	-59.523136	-29.743082	-52.212440
335.586914	-50.580730	9.970902	-47.741627
336.037659	-14.327922	-54.080898	-38.304245
336.488342	-39.156124	-9.386410	-84.511940
336.939026	-56.542274	11.955812	-8.015761
337.389648	-45.116634	3.519080	-16.455349
337.840240	-2.414022	-38.682167	-50.225159
338.290771	-23.264793	2.030326	18.784267
338.741272	-42.136372	-10.875489	-8.015761
339.191681	-23.264793	-19.811972	-23.406176
339.642120	-37.169689	-30.239655	-30.358091
340.092468	-43.129730	23.864412	-35.821083
340.542816	-21.278765	-1.444163	-41.284317
340.993103	-34.686306	-27.260012	-22.413284
341.443329	9.001096	-8.393486	-43.767712
341.893555	27.856037	-37.192112	-11.986991
342.343689	-14.824499	-28.749815	-42.774471
342.793793	-45.613201	-22.294592	-38.304111
343.243866	-20.285776	-12.861301	-23.406176
343.693878	-53.561562	-9.386140	-8.015761
344.143890	-73.436386	-29.246513	-37.310833
344.593842	-30.713543	-12.861301	-41.780987
345.043732	-28.727127	0.044948	-9.008678
345.493591	-62.007442	-17.825926	-34.827713
345.943359	-5.392406	-49.609943	-6.526484
346.393158	-32.203163	25.352619	-43.767712
346.842896	-22.768415	7.985791	-25.888947
347.292542	-25.747831	-3.925874	-29.861519
347.742218	-2.910634	18.902742	-21.420006
348.191803	-12.342196	-10.378945	-44.264400
348.641357	-62.504421	14.436991	-20.427149
349.090881	-30.216967	-28.749815	-18.441351
349.540314	-29.720259	-55.074463	-45.257931
349.989777	-36.672924	-51.597069	-54.696167
350.439148	-27.733877	-15.343629	9.356036
350.888489	-23.264793	2.030056	16.799452
351.337799	-38.162968	-4.918587	-35.324192
351.787048	-24.754496	-18.818872	-44.264400
352.236267	-36.176296	-41.165585	-27.378714
352.685425	-25.747831	-17.329592	-39.794193
353.134552	-59.026451	-9.882541	-36.317707
353.583649	-6.385415	-11.868590	-51.218796
354.032684	-28.230566	-13.854166	-47.244907
354.481659	-19.789289	2.030056	-17.944609
354.930634	-6.385145	-20.308460	-7.519376
355.379517	-40.149567	-45.635895	-17.944609
355.828430	-15.817532	-22.791101	-54.696438
356.277222	-21.775400	0.541265	-44.761097
356.726013	-7.378035	-8.393486	-21.420006
357.174774	-33.693089	-17.825926	-47.244907
357.623444	-15.817397	-11.868590	-45.754635
358.072113	-43.129730	7.489536	-37.310833
358.520721	-33.196487	-11.372172	-32.344563
358.969299	-31.210123	-3.925874	-52.212440
359.417786	-39.653046	-2.436970	-54.199520
359.866302	-5.888773	-27.756563	-8.512150
360.314697	-11.845639	-45.635895	-11.987125
360.763123	-54.058201	-23.784267	-13.476406
361.211456	-4.399550	-45.635895	-52.212440
361.659760	4.534596	7.985791	-16.951540
362.108032	-41.639561	-14.846911	-47.741627
362.556244	-26.244236	1.037578	-27.875401
363.004456	-8.370806	-20.308731	-23.902964
363.452576	-33.196487	-17.825926	6.378515
363.900696	-7.874419	-13.357732	-30.358091
364.348663	-31.210123	-5.911452	-14.469415
364.796722	-3.406980	-46.132603	-35.821083
365.244690	-18.299713	1.037578	-31.847973
365.692596	-38.659744	14.436721	-44.761097
366.140472	-32.203430	-3.429658	6.378246
366.588287	-47.103470	-9.882541	-20.427149
367.036102	-42.633049	17.414106	-20.427149
367.483826	-34.189697	-8.889878	-5.533608
367.931549	-13.335050	-21.798086	-43.270885
368.379181	-26.740778	-16.336399	7.370904
368.826843	-30.216967	-25.273981	-43.767712
369.274384	-36.176296	-24.280519	-32.841160
369.721924	-43.129730	-5.415085	-5.037244
370.169403	-18.796188	-16.336399	-14.965858
370.616821	-32.203163	-34.708996	-12.979705
371.064270	-37.169689	-10.379215	-32.344833
371.511566	-1.421621	19.398901	8.363546
371.958923	-8.370941	18.406713	-56.186939
372.406158	5.527016	-38.682167	-37.807739
372.853424	-28.230566	-12.364876	-1.066482
373.300568	-37.169418	-44.642632	-35.821083
373.747711	-47.600189	-35.205746	-57.677204
374.194794	-11.845639	-16.336399	-61.652069
374.641846	-45.613201	-35.702366	-1.562813
375.088898	-15.817397	6.496880	-48.238354
375.535828	-18.796459	4.511652	-31.847973
375.982758	0.067490	-0.947833	-10.001477
376.429596	-38.659473	-6.407824	-38.304245
376.876465	-49.090511	-20.804953	-48.238487
377.323242	-18.796188	9.970902	-28.868519
377.769989	-31.210123	-15.840215	-20.427149
378.216675	-8.370806	10.963230	-61.652069
378.663330	5.030741	-7.897098	-12.979705
379.109985	-31.210123	-16.336670	-20.427149
379.556519	-27.733877	-4.422498	-18.937693
380.003052	-9.859860	18.406445	-16.951540
380.449524	-20.285776	-7.400714	-36.814201
380.895996	-27.237326	-10.875489	-19.434174
381.342377	-27.237326	-5.415085	-23.902695
381.788727	-27.237326	-33.219177	-51.219063
382.235046	-25.251026	-12.364876	-37.311104
382.681274	-26.244236	-19.315353	-44.264400
383.127533	-12.838620	-9.386410	-34.331238
383.573669	5.527016	26.841055	-15.958623
384.019836	-27.237326	-18.322397	4.393283
384.465912	8.008464	-6.904200	-20.923643
384.911957	-53.064793	7.985791	-10.497748
385.357971	-0.428696	10.963230	-37.807739
385.803925	-15.320946	2.030056	-36.317707
386.249847	-31.706573	-13.854300	-17.944609
386.695679	-44.619934	39.242798	-3.051965
387.141541	-24.258104	11.955677	-6.030111
387.587311	-39.652775	20.391205	-0.073699
388.033051	-42.633049	29.321609	9.852275
388.478729	4.534596	30.809948	33.171623
388.924408	-32.203163	77.423225	7.867159
389.369995	4.038043	38.746536	34.659866
389.815552	-26.740778	86.840561	58.961277
390.261078	8.008464	107.157516	80.774353
390.706543	-7.874419	99.725349	63.919479
391.152008	-68.467049	130.438995	74.826172
391.597351	-25.747831	205.671509	117.937958
392.042725	-48.593777	226.443451	121.900551
392.487976	-36.176296	272.412750	152.108017
392.933289	-28.230433	323.285858	132.796875
393.378479	-48.097183	311.435547	205.058899
393.823639	-29.223690	341.056854	192.196548
394.268768	-34.189697	361.783539	245.112625
394.713837	-46.606888	450.535950	275.259277
395.158905	-37.169418	549.006958	299.465057
395.603851	-45.613201	538.674500	336.990448
396.048798	-47.600189	642.908936	391.757080
396.493683	-33.196487	665.504028	411.480988
396.938568	-23.761581	699.382996	410.001831
397.383392	-38.659473	665.995483	378.933105
397.828156	-15.817532	654.207520	414.932098
398.272888	-9.860130	706.254883	410.988098
398.717560	-39.156391	668.942017	381.399506
399.162201	-35.679676	679.745422	435.634766
399.606781	-43.626549	811.700623	464.213501
400.051361	-35.679676	913.070862	549.873108
400.495819	-44.619934	961.500366	591.677673
400.940308	-3.406980	947.806702	597.577698
401.384705	-40.149567	937.534241	582.335632
401.829102	-22.271906	942.426025	601.510437
402.273438	-2.414022	984.480713	671.771179
402.717682	-17.803242	1083.651367	691.902100
403.161926	-20.285776	1263.572266	818.934448
403.606110	-28.727127	1368.691162	903.166016
404.050293	-17.306910	1694.330811	1139.655151
404.494385	-35.679676	2076.046387	1370.520264
404.938446	-44.619934	2536.190918	1604.568115
405.382477	-29.223690	2665.587402	1675.809570
405.826447	-53.561562	2527.557617	1571.105957
406.270386	-74.430550	2271.071289	1504.625366
406.714233	-29.223690	1907.147949	1284.880981
407.158081	-51.574371	1766.944824	1139.654907
407.601868	2.052732	1624.560547	1043.980591
408.045624	-62.504288	1647.823975	1039.095825
408.489319	-10.853079	1662.845215	1052.283936
408.933014	0.067490	1671.565063	1086.463745
409.376617	4.038313	1824.021851	1217.177002
409.820190	-15.817397	2051.456543	1346.200928
410.263702	-30.216967	2345.595215	1521.129517
410.707184	-24.754496	2666.544922	1772.151367
411.150635	-57.039074	2775.671875	1746.503296
411.594025	-12.342196	2622.475342	1731.014404
412.037384	-45.613201	2497.335693	1659.821777
412.480682	-25.251026	2607.620850	1695.183472
412.923981	-23.761312	2709.636719	1735.854980
413.367126	-15.817532	2841.661133	1848.563110
413.810333	-22.271906	2805.802979	1822.455444
414.253479	-33.196354	2750.315918	1705.353516
414.696533	-61.510601	2479.582275	1606.992432
415.139587	-47.600189	2365.297119	1497.343140
415.582581	-33.196487	2176.743652	1441.003052
416.025543	-35.679676	2234.026123	1492.973511
416.468414	-24.258104	2622.953857	1695.668213
416.911285	-2.414292	3110.407471	2024.814819
417.354065	-7.378035	3379.847168	2230.061035
417.796875	-1.917820	3374.142090	2228.617432
418.239594	-23.264793	3284.245850	2153.512207
418.682281	-27.237595	3419.772705	2166.516357
419.124908	-62.007442	3604.939697	2359.897217
419.567505	-17.803242	3802.086914	2444.429443
420.010071	-26.244236	3919.915283	2577.311035
420.452545	-6.385145	3973.816895	2521.687500
420.895020	-70.951736	3990.359863	2595.045898
421.337372	4.038313	4297.607910	2860.665771
421.779785	-29.720259	4591.310547	3035.425049
422.222107	-21.278902	4893.160645	3191.773438
422.664368	-8.867198	4993.913086	3185.581787
423.106628	-8.370806	4605.882813	2998.685303
423.548798	-16.313717	4024.856445	2617.568604
423.990967	-29.720259	3630.552246	2331.061279
424.433044	-34.686443	3280.914795	2185.295166
424.875092	-24.754496	3037.924316	1970.288940
425.317078	-16.313717	2919.068115	1941.322144
425.759064	-36.176296	2846.919189	1803.594971
426.200989	-23.264793	2873.682861	1851.946777
426.642853	-57.535877	2744.573975	1752.795532
427.084686	-42.136372	2713.465820	1708.743042
427.526459	-19.292805	2636.369385	1663.213623
427.968201	-12.838620	2458.465088	1588.081299
428.409912	-46.109909	2387.878174	1540.541626
428.851563	-27.733877	2365.297607	1533.747925
429.293121	-30.216967	2370.582764	1533.262573
429.734711	-18.299713	2395.082764	1494.429810
430.176239	-34.189697	2362.894775	1564.315063
430.617706	-14.328057	2392.200684	1550.731201
431.059113	-26.740778	2459.424805	1546.849487
431.500488	-32.700024	2343.672363	1554.127441
431.941833	-58.529636	2384.995605	1490.545776
432.383087	-18.299713	2298.003174	1492.973267
432.824341	6.519554	2247.979492	1464.320923
433.265533	-12.342060	2306.177490	1490.545776
433.706726	-59.523136	2276.842773	1499.770508
434.147827	-23.264793	2346.075439	1531.806885
434.588867	-40.646225	2622.954834	1696.152344
435.029877	-26.740778	3320.880127	2158.328369
435.470825	-53.561562	4926.442383	3197.965088
435.911804	-22.271906	7006.141113	4401.604004
436.352661	-51.574371	7930.785156	5103.358398
436.793518	-7.378035	7005.680176	4745.275391
437.234283	-38.162693	6216.243164	4066.786621
437.675049	-51.077618	5532.286621	3522.254639
438.115723	-7.874419	4674.012695	3062.136230
438.556396	-25.747831	3996.504639	2725.317627
438.997040	-30.216967	3635.768066	2422.343750
439.437561	-14.824499	3409.318115	2268.070068
439.878113	-25.747831	3335.624512	2129.426270
440.318573	-38.659744	3187.600586	2099.550537
440.759033	27.856037	3187.124512	2075.931396
441.199341	-67.473389	3176.168945	2069.182129
441.639709	-37.169689	3029.337158	1982.354980
442.079956	0.563942	3076.080322	1940.839478
442.520264	-20.782404	3066.542480	1956.772583
442.960510	-1.421486	3122.324463	1968.357666
443.400604	1.060254	2978.275635	1937.459717
443.840759	-20.782404	2978.275635	1962.565430
444.280762	-39.156124	3118.987549	2005.035278
444.720825	-19.789289	3119.941162	1938.425415
445.160767	-39.653046	3085.616699	2011.789551
445.600739	-37.169418	3064.158447	2002.140137
446.040558	-63.498127	3077.034180	1903.651245
446.480438	-32.699757	2936.260986	1930.215698
446.920258	-21.278902	2983.049072	1864.029907
447.359955	-45.116634	2845.006836	1786.181641
447.799713	-17.803242	2901.871582	1853.396729
448.239319	-12.342060	2808.671875	1783.763062
448.678955	-31.706573	2889.450439	1791.019043
449.118500	-6.881655	2901.872070	1847.596436
449.558014	-43.129459	2807.237549	1768.280273
449.997498	-20.782404	2847.396973	1737.307129
450.436951	-33.196487	2864.602783	1836.960571
450.876343	-22.271906	2980.662598	1778.440918
451.315674	-59.523136	2972.547607	1877.561279
451.754974	-30.713543	3117.557373	1959.186157
452.194183	-13.831484	3206.651855	2050.377197
452.633392	-47.600189	3259.974609	2046.036499
453.072510	-3.903196	3342.758789	2063.878662
453.511688	-35.679676	3339.905762	2086.054688
453.950684	-37.169689	3360.353271	2116.898682
454.389740	-28.230433	3403.139404	2101.959961
454.828735	-21.775131	3308.987793	2150.622070
455.267639	-10.356535	3352.270020	2132.798828
455.706543	-29.223690	3262.354248	2128.944336
456.145325	-28.230566	3338.954102	2152.549072
456.584137	-5.392406	3346.088135	2131.835205
457.022858	-44.619934	3405.515625	2121.717285
457.461578	-43.626549	3378.896729	2164.589600
457.900208	-2.910634	3512.398438	2175.183838
458.338867	-0.925157	3540.406494	2282.499512
458.777405	-18.796459	3688.393311	2362.299561
459.215912	-1.917820	3664.691895	2345.960938
459.654388	-22.768415	3731.990723	2339.232422
460.092773	-9.859860	3492.455078	2222.842773
460.531189	-19.292805	3454.457764	2237.279541
460.969513	-3.903196	3647.149414	2254.119629
461.407806	-42.633049	3691.710693	2332.022461
461.846008	-25.747831	3652.838379	2347.402832
462.284241	-43.626415	3397.436035	2208.884766
462.722351	-24.258104	3291.383057	2081.716064
463.160461	-57.039074	3366.535156	2056.645996
463.598541	-43.129730	3347.514404	2074.967041
464.036530	-32.203430	3389.830322	2166.515869
464.474518	-25.251026	3435.928955	2144.841797
464.912384	-26.244236	3484.382080	2215.141846
465.350281	-30.713543	3499.577881	2220.917480
465.788086	-20.285776	3501.002441	2148.213867
466.225891	-20.285776	3554.170410	2202.627197
466.663605	-30.216696	3600.195801	2314.236084
467.101318	-19.292805	3764.676270	2376.713867
467.539001	-50.083988	4034.305176	2476.588135
467.976563	-72.939590	4458.205078	2760.249268
468.414124	-21.278902	4524.543457	2872.612793
468.851593	-15.817532	4766.040527	3010.614746
469.289063	-46.606888	4971.895508	3152.709717
469.726440	-22.768551	5106.277344	3233.203125
470.163849	-19.292805	5136.224121	3190.821533
470.601135	-66.976501	5277.426758	3277.469971
471.038422	-64.988853	5259.668945	3344.072021
471.475677	1.556563	5228.351563	3286.987305
471.912811	-38.659473	5227.416504	3293.648926
472.350006	-38.659473	5323.678711	3364.519775
472.787048	-3.903196	5277.425781	3379.258545
473.224121	-13.335050	5227.884766	3413.956787
473.661072	-15.817397	5080.069336	3272.235107
474.098053	-24.754496	4809.211914	3059.274658
474.534943	-15.817397	4468.558105	2828.161621
474.971802	7.512210	4305.148438	2693.724365
475.408630	-27.733877	4173.586426	2642.961670
475.845367	-20.782404	4013.044434	2564.846436
476.282104	-36.672924	3812.975830	2458.830322
476.718750	1.060254	3677.965332	2345.000000
477.155426	-21.278765	3624.386719	2281.056641
477.591949	-30.713543	3642.881592	2245.940430
478.028503	-15.320946	3642.881104	2346.921875
478.464966	-25.251026	3659.950684	2290.675293
478.901428	-23.265064	3595.451904	2298.368896
479.337860	-3.406980	3656.157959	2280.094727
479.774170	-40.149567	3571.729248	2261.816406
480.210510	-11.845909	3487.706543	2216.585449
480.646698	-16.313986	3541.830566	2239.685303
481.082947	-26.740778	3559.391357	2256.043701
481.519073	-20.782404	3581.693604	2216.104736
481.955200	-42.633049	3551.322754	2240.166260
482.391266	-48.593639	3642.881592	2275.284912
482.827301	-23.265064	3706.876953	2332.503174
483.263306	-36.176296	3766.097656	2350.766846
483.699188	-54.554977	3665.166260	2349.325195
484.135101	-19.789289	3682.705078	2314.235596
484.570923	-26.244236	3662.321533	2315.677979
485.006744	-38.659473	3589.284180	2248.826904
485.442413	-12.838620	3661.373047	2265.183838
485.878174	-22.768415	3708.298584	2269.031982
486.313782	-38.162968	3702.611328	2257.486816
486.749390	-65.485725	3711.615723	2352.208740
487.184998	-58.529636	3768.939209	2353.169922
487.620453	-31.210123	3933.629395	2501.538818
488.055939	-42.633049	4201.892090	2624.277344
488.491333	-41.142891	4431.375977	2733.453613
488.926727	-17.803242	4426.668945	2855.408447
489.362030	-49.090378	4374.874512	2712.873047
489.797302	-23.761581	4414.899902	2743.023926
490.232513	-23.264793	4406.894531	2803.298096
490.667755	5.527016	4436.554199	2789.907227
491.102905	-1.421486	4465.734375	2831.507813
491.537964	-36.176296	4625.150879	2889.336426
491.973022	-6.385145	4722.853027	2960.498535
492.407990	-33.196487	4712.992188	3013.000977
492.842957	-14.824499	4720.505371	2927.072998
493.277832	-24.754496	4954.090820	3073.581787
493.712738	-22.768415	5422.193848	3311.728027
494.147491	-19.789289	5647.867188	3515.608643
494.582275	-27.733877	5462.323730	3606.723145
495.017029	-12.342060	5262.472168	3384.487305
495.451660	-20.782404	5418.927246	3497.091064
495.886292	-19.789289	5647.867188	3552.633789
496.320831	-45.613201	5792.653809	3651.777344
496.755402	-28.230566	6102.592773	3784.927490
497.189850	-26.740778	6598.177246	4171.585938
497.624298	-24.754766	7547.308594	4672.960938
498.058655	-44.619934	8642.565430	5412.748047
498.493042	-33.196487	9551.985352	5912.057129
498.927368	-21.775400	9789.601563	6185.526855
499.361572	-49.090511	9907.361328	6219.841797
499.795807	-26.740778	9824.352539	6162.799805
500.229919	-10.852809	9289.971680	5843.710938
500.664063	-34.189968	8650.301758	5598.368652
501.098083	-9.363460	8048.764648	5202.059082
501.532104	3.541755	7464.694336	4786.577637
501.966064	-15.817397	7110.689453	4616.580078
502.399994	-34.686443	6767.706543	4341.317871
502.833893	-39.653046	6588.007324	4172.529785
503.267700	-18.796459	6189.811035	3971.812744
503.701477	-30.216696	6230.152832	3954.793945
504.135193	-3.406980	6440.453125	4064.896973
504.568909	-64.988853	6603.724121	4141.854980
505.002502	-32.203163	6305.233887	3982.212158
505.436127	-9.860130	5992.090332	3897.097900
505.869629	-8.370806	6084.956543	3773.561768
506.303162	-5.392272	6283.456055	3884.798340
506.736603	-28.230433	6310.330078	4027.578613
507.169983	-44.619934	6174.970215	3920.747559
507.603363	6.023287	6172.651367	3890.002441
508.036621	-6.385145	6062.674805	3811.442627
508.469940	-26.740778	5744.254883	3724.296631
508.903107	-40.646225	5493.578613	3536.970459
509.336304	-20.782270	5324.144531	3384.962891
509.769379	-10.852809	5233.962402	3296.979492
510.202484	-56.045475	5106.277344	3216.061768
510.635529	-41.142891	5206.378418	3303.640381
511.068481	-67.970154	5361.973145	3374.979492
511.501434	-26.740778	5487.980957	3502.788330
511.934265	-27.734011	5651.128418	3498.040283
512.367126	-14.824499	5787.069336	3642.293701
512.799927	-45.116634	5824.287598	3642.768311
513.232605	6.519689	5730.756836	3613.364502
513.665344	-17.306910	5612.925293	3557.379150
514.097961	-8.370806	5682.333984	3597.710938
514.530579	-53.561562	5863.352539	3616.684814
514.963135	-15.817397	6263.526855	3886.690674
515.395691	-30.713543	6690.592285	4147.519043
515.828064	-55.051765	6978.492676	4380.884277
516.260498	-26.740778	6944.845215	4344.144531
516.692871	-20.782270	6729.385254	4265.442383
517.125183	-47.600189	6704.910645	4203.194336
517.557373	-43.626415	6693.825195	4178.663086
517.989624	-59.026451	6723.382324	4233.852051
518.421753	-31.706573	6857.229492	4342.259766
518.853943	-55.051765	6806.476563	4362.986816
519.286072	-34.686306	6557.493652	4274.398926
519.718018	-24.754496	6462.204590	4141.855469
520.150024	-39.156124	6475.159668	4052.144287
520.581909	-19.789289	6590.781250	4121.559082
521.013855	-7.874419	6583.847656	4228.192871
521.445679	-1.421486	6763.552246	4282.883789
521.877502	-26.740778	6916.261230	4406.783203
522.309204	-74.927376	7041.153320	4410.549316
522.740906	-45.116634	7025.951660	4483.032715
523.172546	-28.727127	7092.733398	4470.798828
523.604187	-17.306910	6985.866699	4464.681152
524.035767	0.067625	6819.859375	4284.298340
524.467224	-41.639561	6367.768066	4088.037842
524.898682	-55.051765	6008.811523	3920.274658
525.330078	0.563942	5814.518555	3801.500244
525.761475	-46.110176	5775.901855	3714.819580
526.192749	-35.183056	5782.416504	3629.490234
526.624023	-29.223690	5652.059570	3571.615967
527.055237	-12.342196	5515.966309	3550.735107
527.486389	-49.090511	5412.393066	3440.566895
527.917542	-14.328057	5436.194336	3501.364258
528.348572	17.436775	5459.058594	3502.313965
528.779663	-63.498127	5488.447754	3461.469727
529.210571	-32.203163	5504.306152	3520.830322
529.641541	-12.838620	5951.671387	3730.455566
530.072388	-25.251297	7026.412598	4265.442383
530.503235	21.902437	8144.716309	5051.869141
530.934082	-53.064793	8624.362305	5520.050781
531.364746	-42.633049	8305.397461	5438.882813
531.795532	-38.659473	7909.738770	5080.893555
532.226135	-34.686443	8271.633789	5123.478516
532.656738	-26.244236	8822.654297	5440.749512
533.087280	2.549032	9554.247070	5977.578125
533.517822	-19.789289	10985.895508	6847.894043
533.948242	11.482398	14582.397461	8921.585938
534.378662	-18.796188	21833.240234	13000.325195
534.809082	-13.831619	27554.166016	16755.988281
535.239319	-3.903196	31149.314453	19976.230469
535.669617	-13.335050	35559.417969	22315.566406
536.099792	-47.103470	45004.445313	27315.398438
536.529968	-29.720259	52128.535156	32578.873047
536.960083	-16.313717	54171.500000	34846.875000
537.390137	-21.775400	54407.714844	35696.621094
537.820190	-27.733877	55362.324219	35776.347656
538.250183	-58.529636	56351.386719	36151.488281
538.680115	-41.639561	55008.542969	35803.367188
539.109985	-17.803242	51766.804688	34221.355469
539.539795	-42.136234	47222.265625	31403.251953
539.969543	-7.874419	43040.679688	28439.505859
540.399292	-63.498127	38360.433594	25454.207031
540.828979	-19.789289	33110.714844	22199.085938
541.258606	-45.116634	27252.404297	18504.380859
541.688171	-49.090511	22561.486328	15340.216797
542.117737	-39.156124	18912.429688	12725.597656
542.547302	-29.720394	16087.487305	10971.008789
542.976685	-35.679676	13529.815430	9271.744141
543.406128	-51.574100	11283.423828	7840.978516
543.835388	-18.299713	9936.674805	6765.750000
544.264771	-22.768415	9107.315430	6100.162109
544.693970	-50.580730	8929.869141	5839.524902
545.123230	-65.485725	9726.847656	6217.986816
545.552307	-46.606617	15465.381836	9059.577148
545.981506	-38.659473	25340.064453	14539.177734
546.410583	-52.071129	31875.287109	19398.652344
546.839539	-47.600189	28409.804688	19984.544922
547.268555	-21.278902	21640.056641	15334.947266
547.697449	-46.606617	19363.326172	12510.423828
548.126282	-15.817397	18676.314453	11225.644531
548.555054	-51.077347	16950.810547	10571.901367
548.983887	0.067625	13934.529297	9527.463867
549.412598	3.045599	11203.837891	8018.027344
549.841309	-4.399820	9445.247070	6636.889160
550.269958	-11.845639	8427.604492	5743.212891
550.698486	-16.313986	7833.762695	5171.662598
551.127075	23.390690	7397.646973	4890.704590
551.555481	-29.223690	7212.394043	4683.293945
551.983948	-18.299713	7102.401367	4603.419922
552.412292	-36.176296	7115.754395	4581.797852
552.840698	-25.251026	7246.890137	4625.038574
553.268860	-26.740778	7435.766113	4723.680176
553.697205	-71.945717	7476.630859	4736.355469
554.125366	-49.587246	7605.109863	4796.900391
554.553467	-29.223690	7764.154297	4926.798828
554.981628	-41.142891	7923.465332	4977.874512
555.409607	-38.162968	7792.551758	5000.827148
555.837646	-47.103470	7725.212891	4919.768555
556.265564	4.534596	7826.894531	4889.767090
556.693481	-70.454819	7844.749512	5041.101563
557.121338	-17.306910	7754.534180	4921.642578
557.549133	-48.593639	7569.791016	4802.062012
557.976929	-35.679676	7484.435547	4821.765625
558.404602	-38.162693	7501.417969	4716.166992
558.832275	-60.019962	7472.500488	4718.984375
559.259888	-22.768415	7438.522461	4708.184570
559.687439	-21.775400	7528.495605	4778.600098
560.114929	-32.700024	7414.182129	4637.726074
560.542419	-4.399820	7502.335938	4799.246582
560.969788	-44.123238	7672.050781	4819.889160
561.397156	-36.672924	7734.834961	4856.474609
561.824524	-30.216967	7831.931641	4914.143555
562.251770	-52.071129	8130.100098	5090.254395
562.679016	-50.580730	8852.192383	5444.015625
563.106140	-12.342196	9867.666992	5993.372559
563.533264	-38.659473	10550.006836	6530.561523
563.960327	-14.824499	10415.673828	6689.095703
564.387329	-8.867198	10532.490234	6629.033203
564.814331	-56.542274	10878.379883	6727.428223
565.241272	-22.768415	11352.695313	6943.814453
565.668213	-30.216696	11914.302734	7420.043457
566.094971	-4.896179	12509.199219	7720.062500
566.521790	-22.768415	13506.842773	8300.269531
566.948425	-26.244236	15237.167969	9297.110352
567.375183	-51.077618	17801.900391	10758.578125
567.801819	-46.606888	20086.208984	12354.106445
568.228394	-0.428696	23058.820313	14090.040039
568.654846	-28.727127	27255.517578	16387.845703
569.081421	-15.817397	32390.552734	19542.576172
569.507874	-29.720259	34615.621094	21345.496094
569.934265	-35.183056	33229.718750	21305.138672
570.360596	-25.747831	30617.496094	19605.576172
570.786865	-18.299713	27443.937500	17674.992188
571.213074	-2.910634	25120.953125	15940.156250
571.639282	-45.116634	22723.384766	14417.277344
572.065430	-19.789289	19996.031250	13008.739258
572.491516	-23.265064	17581.083984	11562.013672
572.917603	-33.693089	15417.554688	10296.410156
573.343567	0.067625	13919.093750	9250.451172
573.769531	-32.203163	12830.321289	8392.850586
574.195435	-46.606888	12185.756836	7918.323242
574.621277	-45.613201	11871.988281	7533.893066
575.047119	-60.020233	11672.756836	7535.728516
575.472839	-31.210123	11805.603516	7463.207031
575.898560	-19.789289	12738.119141	7769.084473
576.324158	-60.517063	13859.552734	8504.046875
576.749817	0.563942	14664.208984	9245.015625
577.175293	-28.230433	14768.859375	9431.113281
577.600830	-21.278902	14384.809570	9227.343750
578.026306	-40.149567	14272.971680	9148.926758
578.451721	-16.810446	14881.824219	9308.433594
578.877136	-33.196487	15359.190430	9537.863281
579.302429	-21.775400	15394.738281	9867.560547
579.727661	-27.733877	15139.693359	9715.450195
580.152832	-19.292805	14569.638672	9419.347656
580.578064	-30.713543	14422.225586	9138.952148
581.003113	-46.606888	14448.193359	9252.717773
581.428223	-25.747831	14560.840820	9226.889648
581.853271	-26.244236	14583.276367	9338.774414
582.278198	-24.754496	14766.220703	9430.661133
582.703125	-42.136372	15260.433594	9678.868164
583.127930	19.917725	15834.631836	9880.641602
583.552795	-11.349492	16586.269531	10435.341797
583.977539	-32.203163	17472.636719	10837.490234
584.402283	-13.335050	19044.494141	11739.084961
584.826965	-17.306910	20865.449219	12739.342773
585.251587	-23.761581	22943.896484	13962.643555
585.676208	-39.156391	25512.777344	15510.462891
586.100647	-13.335050	28648.740234	17364.076172
586.525208	-23.761312	32125.171875	19724.150391
586.949524	-3.903466	35271.476563	21915.699219
587.373962	-23.761581	36950.726563	23368.859375
587.798218	-38.162968	35277.230469	23240.191406
588.222534	-57.535877	29634.171875	20447.789063
588.646729	5.030741	22811.400391	16306.393555
589.070984	-18.796188	17663.728516	12346.554688
589.495117	-71.448792	14093.229492	9842.745117
589.919128	-9.363460	11909.403320	8138.214355
590.343201	-30.713543	9597.190430	7106.896973
590.767151	-51.574100	8390.679688	6364.416016
591.191101	-26.244236	7832.847168	5867.426758
591.614990	-22.768415	8216.407227	5879.980957
592.038818	-10.356535	9427.148438	6345.890625
592.462524	-18.299713	11121.977539	7397.536621
592.886292	-16.313986	13120.398438	8502.680664
593.310059	-2.414292	15177.017578	10005.540039
593.733582	-26.244236	17330.501953	11374.929688
594.157227	-30.216967	19522.119141	12773.923828
594.580750	-23.761581	21670.785156	14132.784180
595.004272	-42.136372	23632.158203	15513.973633
595.427673	-39.653046	25518.535156	16687.275391
595.851074	-41.142891	27347.498047	17890.988281
596.274353	-22.271906	29022.568359	18974.853516
596.697632	13.963462	30560.523438	19948.654297
597.120911	-6.385145	31542.160156	20533.205078
597.544067	14.955857	32714.945313	21372.695313
597.967224	-31.210123	33918.519531	22139.757813
598.390320	-26.244101	34620.941406	22617.246094
598.813354	-25.251297	35290.082031	23024.806641
599.236328	-31.210123	35770.699219	23353.435547
599.659241	-28.230566	36150.265625	23587.068359
600.082153	-20.782404	36835.527344	24111.689453
600.505005	-32.699757	36909.960938	24143.476563
600.927795	-20.782270	37124.449219	24081.666016
601.350525	-13.831484	37425.460938	24282.583984
601.773254	-39.156124	37142.621094	24211.478516
602.195862	-10.356535	37279.589844	24246.369141
602.618408	-25.251026	36984.851563	24147.890625
603.040955	-36.176296	37198.027344	24147.451172
603.463440	-9.363460	36648.125000	23701.730469
603.885925	-23.265064	36779.703125	23847.308594
604.308350	5.527016	36372.167969	23584.867188
604.730652	-30.216696	36193.675781	23312.011719
605.152893	-26.244236	35790.625000	23117.291016
605.575195	-46.606888	35436.269531	22995.746094
605.997375	-13.335050	35036.203125	22850.466797
606.419495	-45.116634	34631.582031	22405.697266
606.841553	-20.285776	34132.765625	22025.078125
607.263672	-15.817532	33631.000000	21798.882813
607.685608	-48.096912	33489.417969	21563.138672
608.107605	-16.810446	33169.332031	21172.679688
608.529480	-61.013626	32977.035156	20924.957031
608.951294	-18.299713	32328.328125	20652.369141
609.373108	-39.652775	31892.183594	20729.046875
609.794800	-32.203163	31556.392578	20248.093750
610.216553	-36.672924	30759.033203	19658.078125
610.638123	-7.874419	30567.203125	19553.076172
611.059753	-21.278902	30375.800781	19427.085938
611.481262	-15.817532	30002.322266	19289.302734
611.902832	-29.720259	29511.757813	18837.554688
612.324219	-31.210123	28900.621094	18771.525391
612.745605	-15.320946	28686.564453	18472.029297
613.166931	-37.666054	28335.062500	18147.189453
613.588196	-15.320946	28141.115234	17936.019531
614.009460	-22.271906	27621.287109	17584.041016
614.430664	-9.860130	27390.603516	17573.980469
614.851807	-26.740778	27200.869141	17306.781250
615.272827	-46.606888	27503.937500	17556.927734
615.693909	-13.831484	28266.109375	17933.835938
616.114929	-45.613201	29209.062500	18343.492188
616.535889	-16.810446	29183.250000	18507.443359
616.956787	-53.064522	28454.738281	18180.853516
617.377563	-49.090511	26969.875000	17501.828125
617.798340	-26.740778	26266.332031	16837.818359
618.219055	-17.803242	25607.128906	16365.075195
618.639832	-34.686443	25132.013672	15918.242188
619.060364	-15.320946	24299.474609	15665.727539
619.481018	-9.859860	23668.755859	15323.537109
619.901611	-54.554977	22936.412109	14935.333008
620.322083	-59.523136	22359.636719	14428.722656
620.742493	-44.619934	21967.199219	14029.656250
621.162842	-21.775400	21543.056641	13743.848633
621.583191	-74.430550	21325.421875	13612.296875
622.003418	-40.646225	20729.593750	13349.854492
622.423706	-6.385145	20496.955078	13112.326172
622.843872	12.474701	19950.074219	12929.462891
623.264038	-19.789289	19754.447266	12638.670898
623.684143	-41.639561	19316.962891	12545.491211
624.104126	-19.292669	19217.238281	12357.660156
624.524170	4.038043	18876.574219	12109.151367
624.944031	-32.203163	18676.314453	11994.786133
625.364014	-25.251026	18662.759766	11912.860352
625.783752	-21.775400	18923.361328	12077.119141
626.203552	-19.292805	18814.482422	12042.409180
626.623230	-39.653046	18284.574219	11882.127930
627.042969	-29.720259	17834.689453	11587.449219
627.462585	-35.679676	17484.005859	11147.819336
627.882141	-53.064522	17231.216797	11023.849609
628.301697	-76.418388	16922.373047	10897.542969
628.721130	-24.754496	16600.716797	10720.003906
629.140625	-11.349492	16429.546875	10484.769531
629.559998	-38.162968	16008.183594	10385.898438
629.979309	-31.210123	15837.259766	10228.470703
630.398560	-34.189697	15774.133789	10085.743164
630.817810	-27.237326	15551.803711	10019.061523
631.237000	-24.754496	15396.053711	9943.780273
631.656067	-45.613201	15187.995117	9686.092773
632.075195	-20.285776	14881.824219	9526.557617
632.494202	-75.424324	14726.652344	9409.844727
632.913208	-45.613201	14495.282227	9413.011719
633.332092	-14.327922	14352.231445	9085.889648
633.750977	-13.335050	14225.405273	9038.705078
634.169739	-33.693089	14125.839844	9020.554688
634.588562	-46.606888	13851.170898	8966.538086
635.007263	-20.285776	13876.311523	8855.263672
635.425964	-33.196487	13532.023438	8619.248047
635.844543	-24.258104	13425.100586	8576.000977
636.263123	-25.747561	13235.873047	8455.750977
636.681641	-33.693089	13216.851563	8464.865234
637.100037	-1.421486	13188.983398	8415.644531
637.518494	-28.230433	12969.431641	8247.793945
637.936829	-29.720259	12797.080078	8179.773926
638.355164	-18.299713	12591.303711	7982.819824
638.773438	-17.803242	12468.799805	7971.386719
639.191650	-14.328057	12305.780273	7810.759766
639.609863	-6.881520	12241.333008	7793.815918
640.027893	-23.264793	11968.180664	7626.553711
640.445984	1.556563	12048.300781	7576.561523
640.863953	19.917725	11925.435547	7534.811035
641.281921	-15.320946	11731.613281	7450.811523
641.699829	-39.652775	11677.662109	7357.106445
642.117676	-2.910634	11609.862305	7415.450195
642.535461	0.563942	11539.806641	7286.784668
642.953247	-51.574371	11352.695313	7234.362793
643.370972	-22.768415	11252.578125	7175.937500
643.788635	-30.713543	11061.111328	7012.942871
644.206177	-40.646225	10877.036133	6965.938965
644.623718	-60.019962	10831.768555	6882.487793
645.041260	-47.103470	10682.425781	6727.429199
645.458618	-16.810446	10753.301758	6736.663574
645.876099	-21.278902	10557.189453	6774.981934
646.293396	-25.747831	10715.625977	6780.059570
646.710693	-38.659744	10702.166992	6758.362793
647.127991	-45.613201	10554.497070	6638.737793
647.545166	-14.328057	10488.470703	6596.218262
647.962341	-24.754496	10289.319336	6523.623535
648.379333	-42.633049	10312.710938	6490.780273
648.796448	-25.251026	10038.995117	6380.160645
649.213379	2.549302	9990.774414	6243.949219
649.630310	-52.567753	9696.589844	6131.252930
650.047180	-56.542274	9477.820313	5972.468262
650.463989	-12.838620	9423.076172	5936.689453
650.880859	-50.084122	9177.142578	5835.803711
651.297546	-0.925157	9188.474609	5788.354492
651.714233	-38.162968	9023.385742	5724.593750
652.130859	-38.162968	9024.747070	5659.866699
652.547485	-36.672924	8825.836914	5526.112305
652.963928	-44.122971	8766.743164	5528.910645
653.380432	-49.587246	8762.651367	5503.262207
653.796814	-51.574371	8835.380859	5444.482910
654.213196	-53.064522	8882.178711	5617.474121
654.629578	-31.706573	9096.428711	5646.824219
655.045837	-48.593639	9141.780273	5733.437500
655.462036	-28.727127	9442.532227	5890.674316
655.878174	-40.149567	9482.795898	5949.701660
656.294312	-36.176296	9439.818359	5902.295898
656.710327	-9.859860	9291.331055	5943.660645
657.126404	-12.838620	9298.578125	5896.251953
657.542358	3.045599	9536.613281	5982.688965
657.958252	-23.264793	9717.365234	6062.563965
658.374084	-54.058201	9639.217773	6095.984863
658.789917	-10.852809	9180.316406	5868.822266
659.205688	-29.720259	8816.747070	5662.661621
659.621338	-31.210123	8754.921875	5534.972656
660.037048	-13.831619	8881.723633	5610.017578
660.452637	-32.203430	9059.231445	5707.833496
660.868164	-12.342196	9083.275391	5744.609375
661.283691	19.917725	8468.164063	5545.696289
661.699158	-20.286047	8072.530273	5244.133789
662.114502	-37.666325	7929.869629	5168.388184
662.529846	-29.223690	7956.402344	4980.216797
662.945129	-29.720259	7961.433594	5016.751465
663.360413	-14.824499	7808.578613	5001.763672
663.775635	-48.096912	7593.185059	4868.667969
664.190674	-61.013760	7372.838867	4728.375000
664.605835	-8.867198	7395.349121	4630.677734
665.020813	-63.498127	7293.330078	4606.240234
665.435791	-41.639561	7294.250000	4560.171387
665.850769	-33.196354	7389.837402	4617.519531
666.265625	-23.761581	7480.304688	4655.580078
666.680420	-4.399550	7528.955078	4784.699707
667.095215	-9.860130	7530.332031	4756.071289
667.509949	-12.342196	7529.873535	4830.209473
667.924622	-39.653046	7631.706055	4732.130859
668.339233	-26.244236	7697.716797	4758.418457
668.753784	-32.203163	7841.543945	4770.151855
669.168335	11.978484	7814.532715	4923.987305
669.582825	-53.064793	7923.007813	4851.316406
669.997192	-48.593639	7853.446777	4996.143555
670.411560	-2.910634	7978.355469	4987.244141
670.825867	-22.768415	8064.762207	5056.551270
671.240173	-6.881655	8132.839844	4996.143555
671.654358	-33.196487	8126.445313	5005.979004
672.068481	-34.686306	8098.119629	5056.551270
672.482605	-34.189697	8033.679688	4996.611328
672.896667	-8.370806	7935.817383	5009.258301
673.310669	-20.285776	7830.100098	4887.892090
673.724609	-21.775400	7819.111816	4873.356934
674.138489	-0.428696	7671.592285	4832.554688
674.552307	-42.136372	7652.795898	4848.501953
674.966064	-84.370682	7566.579102	4769.682617
675.379822	11.978484	7344.810059	4659.807617
675.793579	-51.574371	7286.894531	4582.268066
676.207153	-30.216967	7228.493164	4555.468750
676.620789	-63.994991	7049.444336	4403.016602
677.034241	-39.156391	6943.922852	4442.560547
677.447754	-43.626415	6830.472168	4315.874512
677.861206	-13.335050	6625.446777	4160.733398
678.274597	-15.817397	6597.715332	4152.710449
678.687866	-17.306910	6427.956543	4138.551270
679.101135	5.527016	6290.870605	3937.772217
679.514404	-42.136372	5992.554199	3856.408203
679.927551	-24.258104	5834.055664	3769.298828
680.340698	-28.727127	5644.605469	3587.748047
680.753723	-32.203163	5509.436035	3502.788330
681.166748	-52.071129	5355.436035	3402.550293
681.579712	-27.237326	5223.677246	3300.310303
681.992615	-3.903196	5029.039551	3220.347412
682.405457	-65.485458	4985.481934	3165.573975
682.818298	-34.686306	4982.202148	3126.022949
683.231018	-29.720259	5050.109375	3078.827637
683.643738	-37.169418	5182.530273	3182.724121
684.056335	-22.271906	5004.217285	3203.680420
684.468994	-25.747831	4675.891602	3047.351074
684.881531	-21.278765	4699.374512	2968.614990
685.293945	-38.659473	4515.605469	2864.967041
685.706482	-46.109909	4416.783691	2751.158447
686.118774	-58.032551	4231.134277	2717.180664
686.531128	-39.156391	4039.030029	2621.402344
686.943481	-19.292669	3851.316406	2418.501465
687.355713	-0.925157	3700.716553	2338.751953
687.767883	-34.686306	3579.795654	2254.600342
688.179932	-55.548550	3422.148926	2223.323730
688.592041	-36.672924	3349.892578	2130.389648
689.004089	-25.747831	3246.170898	2077.859863
689.416016	-31.706573	3212.842773	2080.270508
689.827881	-6.385145	3147.105713	2025.297119
690.239868	-35.183056	3065.111816	1894.955566
690.651611	-14.824499	3033.630615	1931.665283
691.063354	-44.619934	2922.888916	1845.662476
691.475098	-49.090511	2953.928711	1851.463013
691.886719	-61.013760	2895.661621	1821.488647
692.298340	-29.720394	2844.051025	1762.957764
692.709900	-16.313986	2791.934570	1818.103394
693.121460	-38.162968	2735.960938	1753.279297
693.532837	-20.782404	2730.696289	1745.535645
693.944214	-20.782404	2749.359375	1758.602539
694.355652	-2.910634	2699.104736	1709.711548
694.766846	-20.285776	2693.359375	1658.853027
695.178101	-38.162968	2735.481445	1712.132813
695.589294	-7.378035	2712.508301	1709.227417
696.000366	-22.768415	2684.741699	1670.480225
696.411438	-25.251026	2597.077637	1635.592529
696.822510	-17.306910	2493.017822	1639.469849
697.233459	-13.335050	2507.890869	1533.262817
697.644409	-20.782270	2438.782715	1522.585327
698.055298	-38.659473	2449.824463	1502.683594
698.466064	-13.831484	2390.279785	1447.318970
698.876831	-2.414292	2370.582764	1505.596558
699.287537	-34.686306	2352.323242	1482.776245
699.698181	-43.626415	2363.375732	1440.517090
700.108826	-32.203163	2289.828125	1492.487793
700.519348	3.541755	2282.614258	1438.087891
700.929810	-42.136234	2247.017334	1434.200317
701.340271	-54.554977	2196.965088	1380.245972
701.750732	-28.230433	2275.399902	1359.333984
702.161011	-3.903196	2217.182129	1416.705933
702.571350	-20.285776	2195.520752	1324.793091
702.981567	-19.292805	2120.868652	1351.065308
703.391724	-43.626549	2157.962158	1291.210083
703.801880	-17.803242	2071.707275	1334.038330
704.211914	-28.727127	2061.582764	1298.025513
704.621948	-21.278902	2054.831787	1299.485596
705.031921	-39.156391	2058.689453	1239.589233
705.441895	-27.733877	2008.044922	1235.204956
705.851746	-45.116634	1976.678589	1270.273682
706.261536	-12.838620	2027.823853	1231.794556
706.671265	-44.122971	1998.878052	1269.300049
707.081055	-29.720259	1958.335693	1226.922485
707.490662	-43.626549	1917.291992	1177.207275
707.900330	-10.356535	1905.216187	1214.740356
708.309814	-33.693089	1886.857666	1206.942871
708.719299	-42.136372	1919.706665	1189.883057
709.128784	-52.071129	1873.811157	1142.581909
709.538147	-27.237326	1873.327515	1204.018433
709.947510	-21.278902	1852.062134	1178.182129
710.356750	-51.574371	1842.877563	1208.404785
710.766052	-16.313986	1861.729004	1145.020874
711.175171	-17.306910	1855.928833	1147.947144
711.584290	-27.733877	1775.170044	1132.337769
711.993347	-47.600189	1787.748535	1153.800293
712.402405	-3.406980	1812.415771	1113.796265
712.811401	-51.077347	1855.445801	1088.904907
713.220276	-25.251297	1778.556641	1108.916382
713.629150	-22.768551	1803.227051	1106.476440
714.037964	-44.619934	1750.974854	1091.833618
714.446777	-30.216696	1715.637329	1085.487427
714.855408	-15.817397	1758.234131	1056.190674
715.264099	-22.271906	1750.975342	1082.558105
715.672668	6.023287	1648.793091	1002.449890
716.081177	-7.378035	1677.862549	1057.656128
716.489746	-32.203163	1634.738892	1070.840698
716.898132	-27.733877	1630.861328	1098.179199
717.306519	-50.580868	1647.823975	1019.553772
717.714844	-18.796459	1609.532104	1019.064697
718.123108	-12.342060	1633.769653	1044.957520
718.531372	-27.237326	1637.162598	1010.757813
718.939514	-54.554977	1594.501465	1012.712708
719.347595	-43.626415	1603.229248	1002.449890
719.755676	-29.720394	1582.377441	959.427551
720.163696	-27.733877	1553.273438	1021.507874
720.571716	-13.335050	1576.557373	979.475342
720.979614	-41.142891	1608.078125	987.785950
721.387451	-22.768415	1545.509888	984.852905
721.795227	15.948102	1517.847778	982.408813
722.202942	-31.706573	1519.304199	989.252502
722.610718	0.067625	1503.770508	935.460754
723.018311	-16.810446	1561.035522	941.819946
723.425903	-16.810446	1515.420898	919.315247
723.833374	-23.761581	1511.537598	971.163513
724.240906	-18.796459	1483.377563	897.782166
724.648376	-10.356535	1505.711914	911.975281
725.055725	-32.203163	1508.625000	952.580688
725.463013	-20.782404	1450.350220	942.798462
725.870300	-39.156124	1508.624756	893.866272
726.277466	-19.292805	1452.779297	950.135193
726.684631	-41.639561	1405.156738	928.611633
727.091797	-32.699757	1393.489868	891.908325
727.498779	-13.831484	1427.999634	903.166260
727.905823	-26.740778	1425.083862	901.208313
728.312805	-18.796459	1389.114014	860.083679
728.719666	-19.292805	1393.975586	873.794434
729.126526	-29.720259	1444.520020	851.757690
729.533264	-31.706573	1378.417236	858.614380
729.940063	-19.292805	1397.864990	843.430786
730.346680	-19.789289	1382.307373	859.104187
730.753357	-54.554977	1389.600342	852.737000
731.159851	7.512210	1357.504761	819.424255
731.566406	-16.810446	1368.691406	841.961182
731.972900	-44.123238	1336.587158	850.778198
732.379272	-29.223690	1335.614014	815.014038
732.785645	-16.313717	1326.369141	831.183655
733.191895	-20.782270	1303.496338	826.283875
733.598206	-48.096912	1308.363159	802.271667
734.004333	-51.077347	1331.235107	880.159241
734.410522	-43.626415	1361.882324	841.961182
734.816528	-31.210123	1361.396118	815.503967
735.222656	-38.659473	1321.503296	796.389465
735.628662	-60.516792	1308.363159	779.231445
736.034546	-10.852809	1358.477661	843.920471
736.440430	-44.122971	1336.100586	821.874084
736.846252	-28.726856	1330.748657	824.814148
737.252014	-35.679676	1337.073364	804.232056
737.657715	-16.810446	1366.259766	851.757690
738.063354	-20.285776	1400.781860	839.021851
738.468933	-30.216967	1376.471924	876.242554
738.874512	-44.619934	1329.288818	830.693604
739.280029	-19.292805	1322.963013	800.311157
739.685486	-33.196487	1346.803711	802.271667
740.090881	-35.183056	1357.505005	855.186157
740.496216	-30.216967	1362.368774	760.597412
740.901550	-58.032551	1344.371216	807.172913
741.306702	-11.845909	1367.232056	884.565552
741.711914	-40.149567	1346.317139	826.284119
742.117004	-40.646225	1306.416626	806.682983
742.522095	-73.436386	1332.208130	796.880005
742.927124	-47.103470	1253.344849	751.769104
743.332031	-31.210123	1330.748413	769.915039
743.737000	-31.210123	1279.155151	802.271667
744.141785	-3.903196	1268.442261	754.711914
744.546631	-31.210123	1232.398193	767.953613
744.951355	-20.285776	1255.780273	781.682922
745.356079	-32.203430	1286.944824	765.991882
745.760620	-21.278765	1203.647339	771.385925
746.165283	-15.817397	1205.109863	783.643921
746.569824	-17.803242	1175.373535	760.597412
746.974243	-15.817397	1191.949219	780.702332
747.378723	-32.700024	1191.461548	764.030640
747.783020	-34.189697	1221.191528	732.637146
748.187378	-11.349492	1173.910645	724.295776
748.591614	-28.727127	1216.318726	769.915039
748.995850	-28.230433	1235.321289	721.351624
749.399963	15.452049	1236.782959	750.297546
749.804077	-34.189968	1187.074341	745.392212
750.208130	-26.244236	1173.910645	769.424805
750.612122	-46.606617	1202.185059	735.581055
751.016052	-21.278765	1216.805908	736.071472
751.419922	-25.747561	1182.198975	735.580750
751.823792	-35.183056	1181.711670	711.045837
752.227478	-33.196487	1135.868896	684.047119
752.631226	-17.803242	1153.916748	673.735352
753.034851	-28.727127	1113.424927	713.008911
753.438477	-69.460854	1111.960815	677.172729
753.842102	-37.666325	1129.039063	674.717712
754.245544	-33.196487	1147.576172	713.990173
754.648987	-18.299713	1166.596436	665.387024
755.052368	-38.659744	1204.134766	747.845154
755.455750	-53.561562	1264.546509	739.015015
755.859009	-49.090511	1291.326538	803.742126
756.262268	-11.845639	1295.708008	828.243896
756.665405	-31.210123	1238.244141	789.036865
757.068542	-40.149429	1188.049194	742.939697
757.471680	-38.162968	1146.113037	721.351379
757.874634	-23.265064	1102.688477	697.302063
758.277588	-57.039074	1140.747192	669.315674
758.680420	-15.320946	1070.469116	662.440002
759.083374	-50.580730	1115.376953	634.438904
759.486084	-27.237326	1081.210327	704.174194
759.888916	-4.895908	1025.044922	642.791382
760.291504	-56.542274	984.481201	639.352295
760.694214	-13.831484	1003.055176	633.947693
761.096802	-44.123238	1017.226929	634.930603
761.499268	-12.838620	998.167542	609.375427
761.901733	-41.639698	986.436035	599.052673
762.304199	-17.306910	964.923706	591.186462
762.706543	-34.189426	976.169678	591.186462
763.108826	-51.077347	989.858459	571.516479
763.511108	-26.740778	927.749939	586.761353
763.913208	-13.335050	947.806702	582.335632
764.315369	-10.356535	942.915283	602.002380
764.717529	-20.285776	938.512573	548.397339
765.119568	-5.392272	949.274109	573.975830
765.521545	-28.230433	1022.113220	655.563904
765.923462	-41.639698	1427.513916	741.958557
766.325317	-20.285776	2004.184937	1026.882568
766.727112	-12.838620	2359.531494	1257.125122
767.128845	-36.672924	2166.630859	1339.876465
767.530518	-28.230433	1754.362793	1246.409058
767.932251	-1.917820	1562.976074	1062.051270
768.333862	-39.156124	1430.915527	907.081421
768.735413	-15.817532	1401.754028	864.001221
769.136841	-27.734011	1502.313843	873.794678
769.538269	-37.666325	1663.329102	924.208252
769.939636	-30.216967	1803.227051	1072.793701
770.341003	-40.646225	1823.054321	1164.529541
770.742249	-19.789289	1510.081177	1035.676270
771.143433	-49.090511	1302.035645	897.292908
771.544617	-42.136372	1256.754272	760.106812
771.945740	-43.129730	1227.038818	722.332764
772.346802	-39.156124	1160.744995	675.208862
772.747803	-54.554977	1028.465088	681.100708
773.148682	-30.713543	979.103027	676.190918
773.549622	-15.817532	942.426025	590.202881
773.950439	-23.761312	871.953125	560.695801
774.351196	-1.421621	827.871094	543.969360
774.751892	-32.203163	778.858276	508.041901
775.152588	-57.535877	811.210510	506.564972
775.553162	-48.593777	773.464600	436.127472
775.953735	-21.775400	796.997070	471.109558
776.354309	-10.356535	723.922119	447.954559
776.754639	-34.189697	719.505737	445.490997
777.155090	-30.713543	751.886230	426.763092
777.555420	-35.679676	724.412903	474.064819
777.955750	-29.223690	726.866638	431.199066
778.355896	-37.169418	660.101746	440.070160
778.756104	-38.162968	703.309998	402.605713
779.156189	-21.775400	684.164063	441.548645
779.556274	-16.313986	694.473999	431.199066
779.956299	-1.917820	695.947083	414.932098
780.356201	-14.824499	689.073853	415.918304
780.756165	-19.292805	675.325867	476.034912
781.156006	26.863722	708.708984	387.318085
781.555786	0.563942	734.717041	434.649109
781.955505	-15.320946	711.163086	433.663483
782.355225	-3.903196	717.052307	428.734619
782.754761	-26.244236	676.799072	378.439697
783.154358	-33.196487	688.092224	414.932098
783.553894	-47.600189	684.655212	412.466980
783.953369	-11.349221	646.839233	406.550720
784.352783	-10.356535	662.066345	370.053528
784.752075	-50.580730	668.450806	394.715698
785.151367	-21.278765	679.254272	393.729706
785.550598	-34.189697	649.786316	363.146027
785.949768	-26.244236	627.185730	383.372131
786.348877	-51.077347	595.236938	381.399231
786.747986	-50.083988	620.305725	400.140411
787.147034	-22.768415	607.526672	358.705048
787.545959	-18.796459	585.403259	389.290833
787.944885	-44.123238	620.797302	337.484161
788.343750	-14.824499	568.191406	346.368011
788.742493	-34.189697	592.778687	378.439697
789.141235	-27.237326	612.933960	329.585815
789.539917	-40.646225	602.119507	330.079590
789.938538	-2.414292	560.321777	356.238007
790.337158	-30.216696	543.594666	326.623871
790.735718	-37.666325	616.374146	300.453094
791.134094	-45.116634	528.832336	361.172455
791.532532	-28.230566	549.006958	327.611206
791.930847	-53.064522	559.337524	364.626282
792.329224	-31.210123	594.745178	325.636261
792.727417	-21.278902	611.950439	338.471313
793.125610	-20.782404	601.136414	384.358582
793.523682	-25.251026	632.099365	364.132782
793.921753	-21.278902	594.253662	339.458160
794.319824	-55.051765	567.699402	347.355042
794.717773	-44.619934	577.043823	341.432953
795.115723	-10.853079	564.748413	312.799103
795.513550	-27.237595	522.434387	333.041351
795.911377	-51.077618	560.321533	333.041351
796.309082	-19.789289	512.589600	318.230560
796.706787	-36.176296	559.337769	311.811279
797.104370	-28.230433	556.878113	324.155334
797.501953	4.038043	538.182312	334.522308
797.899536	-34.189697	557.861938	330.079590
798.296936	-28.727127	545.071106	294.032013
798.694397	-29.720259	526.371887	314.280304
799.091736	-1.421486	556.386108	316.255585
799.489014	-20.285776	511.605377	278.223663
799.886230	-41.639561	497.820557	296.007690
800.283447	-23.264793	520.465454	321.686737
800.680542	-54.058201	503.729004	287.610535
801.077637	-37.169689	504.713348	291.068146
801.474670	-48.593639	480.093048	303.910248
801.871643	-14.327922	552.450195	289.586426
802.268555	-55.548687	558.353699	331.066589
802.665405	-20.782270	527.355835	299.959351
803.062256	-17.306910	573.109436	288.598480
803.458923	-52.568024	557.861694	357.224884
803.855652	-42.633049	487.480255	324.155090
804.252258	-16.313986	516.035583	335.016052
804.648804	-31.706573	522.434143	338.964996
805.045410	-13.831484	480.585632	328.598511
805.441833	-35.679676	533.261353	284.646637
805.838257	-54.058201	476.645416	311.317627
806.234619	-43.626415	541.134521	280.694244
806.630859	-10.356535	543.102600	324.649170
807.027100	-24.258104	514.559082	312.305481
807.423279	-40.149567	500.774841	303.910248
807.819458	-34.189968	485.017700	298.477570
808.215515	-35.679676	495.851135	317.736694
808.611572	-24.258104	494.373871	285.140228
809.007507	-11.845909	521.942139	294.032013
809.403381	-0.925157	507.174927	284.152222
809.799194	-22.768415	534.737488	348.835663
810.195068	-26.740778	556.877869	275.753510
810.590759	-18.796459	588.353638	359.198853
810.986450	-53.561562	552.942505	349.822906
811.382080	-42.633049	558.353699	305.885345
811.777649	-7.378035	564.748169	319.218292
812.173157	-10.853079	568.191406	309.836121
812.568665	-15.817532	624.728882	387.318085
812.964050	-20.782404	637.995789	348.835907
813.359375	-22.271906	602.611206	348.342041
813.754639	-18.299713	612.442322	385.838348
814.149841	-46.606888	677.289978	396.195251
814.545105	-9.363460	713.126099	419.368927
814.940186	-19.789289	767.089966	419.861969
815.335266	-38.659744	851.384766	486.377289
815.730347	-15.817532	918.942932	492.286530
816.125244	-42.136372	1059.237915	585.777710
816.520203	-15.817397	1266.007568	734.108826
816.914978	-61.510601	1654.123291	888.971375
817.309753	-42.633049	2551.056885	1296.078125
817.704468	-30.713543	3830.017334	1881.427124
818.099182	-12.342196	5427.794922	2740.631348
818.493774	-64.988586	6889.515137	3724.770020
818.888367	-44.619934	7810.868164	4525.371094
819.282898	-20.782270	8492.765625	5108.505859
819.677307	-33.693089	8895.351563	5546.628906
820.071716	-17.306910	9293.141602	5710.626465
820.466003	-30.216967	9560.577148	5905.085449
820.860291	-27.734011	9292.690430	5826.967285
821.254517	-29.223690	8625.272461	5607.222168
821.648743	-50.580730	7852.988770	5242.731934
822.042786	-39.653046	6949.916016	4794.085449
822.436890	-29.720259	6301.992188	4176.775879
822.830872	-31.706573	5462.323730	3771.667236
823.224792	-1.421486	4895.505371	3354.058594
823.618774	-38.659473	4207.552734	2889.814453
824.012512	-50.083988	3697.398682	2574.914307
824.406311	-40.149567	3209.985352	2229.098877
824.799988	-13.335050	2943.901611	2019.990845
825.193665	-46.606888	2571.673096	1721.816162
825.587280	-66.976234	2356.648438	1571.591431
825.980835	-38.162968	2117.495605	1427.883667
826.374329	-46.606617	1917.291504	1307.760010
826.767761	-39.156124	1790.650513	1183.545044
827.161194	-22.768415	1716.606079	1132.825439
827.554443	-25.251026	1547.935913	1041.538208
827.947754	3.541755	1503.770508	965.295715
828.340942	-36.672924	1402.240356	920.294067
828.734131	-45.116634	1297.167969	833.143311
829.127136	-57.535877	1257.728394	801.291443
829.520264	-32.203163	1241.167236	782.173035
829.913208	-47.103470	1155.380249	713.990417
830.306152	-34.686443	1070.957275	687.483948
830.699097	-40.646225	1028.464722	652.616577
831.091797	-13.831484	1005.010315	618.713928
831.484619	-32.203163	936.556152	619.205505
831.877319	2.053002	906.219543	637.878235
832.270020	-4.895908	879.786682	558.236267
832.662537	19.421436	853.833679	541.017029
833.055054	3.541755	848.935730	546.429199
833.447510	-5.888773	788.173218	545.445251
833.839966	3.045599	806.309814	515.918030
834.232361	-21.278902	749.433655	461.750000
834.624634	-12.342196	720.487427	459.286713
835.016907	-33.693089	680.236267	446.476501
835.409058	-13.831619	660.592773	424.298462
835.801208	-32.700024	649.295227	451.896545
836.193298	-95.804031	632.099609	427.256104
836.585327	-35.183056	663.048584	412.960144
836.977295	-30.713543	583.436768	383.372131
837.369202	-36.176296	566.223816	352.783752
837.761047	-18.796188	566.223511	351.303223
838.152832	-26.740778	578.027344	373.013428
838.544617	-29.720394	535.721924	306.379303
838.936218	-53.064793	570.158630	343.406586
839.327942	-17.306910	525.879639	302.922272
839.719421	2.549032	520.465454	323.167969
840.111023	-41.142891	491.911835	328.104706
840.502380	-16.810446	486.002563	319.711884
840.893860	-41.142891	486.002563	264.882507
841.285217	-41.639698	480.092773	286.128479
841.676453	-30.713543	472.704956	278.223938
842.067749	-19.789289	425.402252	286.128479
842.458862	-28.230566	452.507019	278.717834
842.849976	-44.123238	435.752472	246.595673
843.241028	-25.747831	440.680756	219.896637
843.632019	-31.706573	426.880768	250.549683
844.022949	-27.237326	421.458618	275.259552
844.413879	-44.122971	431.809753	255.492722
844.804749	0.067490	399.271942	238.191605
845.195496	-45.613201	402.230499	249.561401
845.586182	-41.142891	418.500702	244.618179
845.976807	-25.747831	374.117584	214.456345
846.367432	-52.071129	375.597839	229.786377
846.757996	-34.686443	413.570709	215.939850
847.148499	-9.363729	388.915558	210.005035
847.538879	-51.077618	387.435852	240.169037
847.929260	-6.881655	389.408875	225.336182
848.319641	-24.258240	390.888275	219.401993
848.709839	0.563672	343.031036	220.885651
849.100098	-10.852809	381.024170	179.331390
849.490234	-26.740778	367.211029	208.521103
849.880310	-18.796459	323.286102	209.510437
850.270325	-34.686306	331.678192	210.005035
850.660339	-51.574371	292.174255	257.469604
851.050171	-44.123238	303.534454	230.280685
851.440125	-13.335320	387.435852	198.133102
851.829895	-17.803242	362.770599	185.269577
852.219604	-30.713543	314.892365	203.080078
852.609314	-12.342196	334.146729	186.753815
852.998901	-41.142891	361.290283	178.341827
853.388550	-35.183056	323.779663	213.467224
853.778015	-32.700024	290.198181	192.196289
854.167480	-24.754496	311.435547	151.117889
854.556885	-13.335050	332.171967	147.157074
854.946228	-28.230433	288.716187	126.358429
855.335571	-33.693089	320.323883	165.473740
855.724731	-55.548550	313.904297	175.372406
856.113953	-13.831484	279.824158	181.310852
856.503052	-37.169418	291.186340	188.733032
856.892151	13.963462	282.788574	178.341827
857.281067	-21.278765	278.341888	149.137573
857.670105	-42.633049	279.824158	170.423203
858.058960	2.549032	285.752563	163.988739
858.447754	18.925276	301.064758	190.712204
858.836609	-25.747831	263.023834	235.225067
859.225281	-48.096912	301.065033	175.867142
859.613892	-25.251026	277.847961	160.028885
860.002502	-48.593639	278.341888	178.341827
860.391052	-38.659473	224.465317	161.018875
860.779541	-25.747561	251.162384	136.263580
861.167969	-19.292805	287.234650	142.700729
861.556335	-36.672924	267.471619	178.836548
861.944702	-27.733877	257.093262	136.263580
862.332947	-15.817397	226.443176	144.186249
862.721069	-27.733877	255.610718	139.234650
863.109253	-11.845909	259.564697	119.919281
863.497314	-62.504288	251.656509	162.503952
863.885376	-39.653046	260.058472	171.908066
864.273315	-29.720259	262.529816	143.690994
864.661255	-61.013626	237.815140	162.008987
865.049072	-27.237326	230.893585	151.612946
865.436890	6.023287	234.848862	154.583405
865.824707	-3.903196	260.058746	134.282654
866.212280	7.015952	214.574432	117.442482
866.599915	-26.244101	237.320648	119.423958
866.987488	-19.292669	254.127884	138.244186
867.375061	-12.838620	245.724838	151.117889
867.762451	-24.754496	261.541473	161.513855
868.149841	-27.237326	251.656509	148.147125
868.537170	-53.064522	234.848587	133.787308
868.924438	17.437046	225.453979	122.396118
869.311707	-58.032551	229.410141	126.853691
869.698853	-2.910634	205.671509	111.993317
870.085938	-28.230566	199.735550	109.020905
870.472961	1.060254	250.667984	126.853828
870.859985	-39.653046	205.671509	106.048218
871.246887	-26.244236	230.398758	117.442482
871.633789	-30.216967	179.449677	147.652161
872.020569	-50.580730	216.058228	119.919418
872.407349	-14.328057	206.660889	102.084175
872.794067	-58.032818	214.574432	85.235283
873.180725	-33.693089	207.155777	121.900551
873.567322	-58.032818	197.261841	110.011589
873.953796	-40.149567	187.367004	73.338936
874.340332	-38.659744	198.746048	78.296211
874.726624	-30.713543	180.439362	91.182564
875.113037	-19.789289	176.975296	75.817551
875.499329	-69.460991	207.650116	107.039078
875.885559	2.052732	196.272461	110.011589
876.271729	-9.363729	205.671509	106.543381
876.657898	-26.740778	197.261841	124.377449
877.044006	-29.720259	139.848190	133.787308
877.429932	5.030741	161.632050	80.774353
877.815918	-40.646225	183.903214	107.534508
878.201782	-13.335050	175.985703	94.651390
878.587585	-30.713543	179.944519	122.891426
878.973389	-19.292805	171.036423	126.358429
879.359070	-55.051765	174.995819	73.338936
879.744751	-56.045341	169.551819	82.261414
880.130310	-46.606617	177.470154	127.349098
880.515930	-28.727127	202.703659	93.660454
880.901367	-44.619934	159.652084	78.791878
881.286804	-34.686306	185.387741	88.209129
881.672180	-21.775400	190.335724	96.138100
882.057434	-32.699757	195.777878	104.561745
882.442749	24.383064	161.632324	88.704575
882.827942	-24.754496	154.206711	93.164909
883.213013	-8.370806	170.541519	93.164909
883.598145	-31.706573	177.470154	88.209129
883.983154	-38.162968	170.046600	79.783188
884.368042	-18.299713	166.086746	89.695732
884.753052	-53.561562	175.490570	93.660454
885.137817	-21.775400	169.056625	96.138374
885.522644	-27.733877	167.571976	86.722221
885.907349	-34.189968	122.514534	59.456966
886.292053	-33.196487	142.818954	85.235283
886.676636	-33.196487	151.236237	88.209129
887.061157	-24.258104	181.923965	57.473644
887.445740	-34.686443	154.206711	69.868881
887.830078	-8.370806	169.551544	59.456966
888.214539	-22.768415	160.146942	91.182564
888.598816	-29.720259	174.005798	72.843361
888.983093	-65.485725	163.117126	56.977802
889.367249	-23.264793	161.137329	89.695999
889.751465	-12.342196	168.066910	63.423687
890.135498	-38.659473	132.419769	40.612049
890.519531	-52.071129	164.602020	85.731018
890.903503	-23.761581	127.962753	61.936161
891.287415	-19.789289	164.107056	65.902725
891.671326	-27.733877	168.561707	69.868881
892.055054	-59.523136	159.157089	76.809059
892.438843	-48.096912	124.495575	96.633621
892.822510	-26.244236	134.895966	77.800407
893.206116	-42.633049	128.953125	63.423687
893.589661	10.985903	160.147217	89.695999
893.973206	-19.292805	153.216339	46.067982
894.356628	-3.903196	136.877014	46.563641
894.739990	-19.789558	145.294846	45.571774
895.123352	-27.733877	148.760574	84.244049
895.506592	-33.692955	110.130013	68.381516
895.889832	5.030741	122.018951	73.338936
896.272949	-27.733877	132.419769	82.757042
896.656067	-27.733877	112.111740	68.381516
897.039063	-14.327922	120.532875	90.687004
897.422058	-40.149429	155.196655	67.390144
897.804993	-41.639561	123.504990	76.313240
898.187866	-33.196354	96.752075	68.877258
898.570618	-22.271906	140.343338	41.604000
898.953369	-42.136372	97.743225	60.944553
899.336121	-50.580730	134.895966	66.894386
899.718689	-43.626415	114.093384	35.155891
900.101257	-7.378035	119.542374	84.244049
900.483704	-53.561291	131.924698	56.977802
900.866211	-35.679676	101.707420	75.322136
901.248596	-34.189697	96.751801	57.969616
901.630920	-10.852809	141.828674	54.498402
902.013184	-44.619667	141.828934	76.809059
902.395386	-23.265064	114.588631	46.563911
902.777588	0.067490	119.542374	16.799452
903.159668	23.887081	149.750870	58.961277
903.541687	-50.580730	118.056236	42.100105
903.923645	-19.292805	103.193687	43.092033
904.305603	-59.523136	149.750870	52.019028
904.687500	-27.237326	96.256287	54.002533
905.069275	-70.454819	151.731033	64.415260
905.451050	-39.156391	105.671074	11.837324
905.832642	-61.013760	120.037827	63.919479
906.214294	-53.064522	148.265747	51.523144
906.595825	-29.223690	118.551437	50.531219
906.977417	-26.244236	96.752075	110.506989
907.358826	8.008464	125.981552	65.902725
907.740234	-7.377900	103.689140	53.010925
908.121582	-34.189697	126.476822	91.678123
908.502869	-26.740778	91.301025	45.571774
908.884033	19.421570	90.309769	80.774628
909.265198	-15.321081	95.265511	86.226624
909.646301	-60.517063	85.849228	94.651657
910.027344	-50.580730	123.504860	63.919479
910.408325	-17.306910	101.707420	61.936432
910.789246	-46.109909	116.570198	54.994259
911.170105	0.563942	111.120811	53.506798
911.550903	-33.693089	118.551704	79.287529
911.931641	-13.335050	121.028198	33.171486
912.312317	-12.342196	158.166931	78.791611
912.692932	-42.632778	100.716187	53.010654
913.073547	-22.768415	121.028473	77.800407
913.453979	-31.210123	133.410477	68.381790
913.834473	-15.817397	124.990860	96.138100
914.214783	-3.903196	126.971954	86.722221
914.595154	-18.299713	114.093117	48.051819
914.975464	-25.251026	117.065552	86.722221
915.355652	-29.223690	134.400772	50.531353
915.735840	17.933216	138.857864	122.396118
916.115845	-21.278902	140.838364	73.834908
916.495972	-8.867198	132.914993	47.059708
916.875854	10.489674	133.410477	35.155891
917.255859	-2.414022	119.047043	70.364616
917.635620	-1.917820	128.457870	33.667664
918.015503	9.993575	150.741165	55.986107
918.395203	-21.278902	161.137192	73.834908
918.774902	-8.867198	158.662079	46.563911
919.154480	-37.169689	132.420044	57.473644
919.534058	-26.740778	128.457870	87.713539
919.913574	-7.874419	125.981552	100.597878
920.292969	-12.342196	141.828674	45.075970
920.672363	-18.796188	118.056236	83.252808
921.051636	-23.761581	120.037560	82.261414
921.430969	-35.679676	127.962753	52.019028
921.810181	-25.251026	136.381699	51.026981
922.189331	-47.600189	125.981285	58.465446
922.568420	-38.659473	122.018951	61.440361
922.947388	-22.768415	100.716187	29.699230
923.326416	-61.013626	144.304611	68.877533
923.705261	-37.169689	112.607124	34.163967
924.084106	-40.646225	130.438995	54.498402
924.462891	-27.237326	123.009697	66.894112
924.841675	-26.740778	112.111740	80.278709
925.220337	-52.567753	135.886505	27.218554
925.598938	-21.775400	119.542374	67.389877
925.977478	-31.210123	108.643646	36.643948
926.355957	-26.244236	89.814194	46.067982
926.734436	-56.542004	90.805466	76.809059
927.112732	-46.109909	84.858147	58.465446
927.491089	-26.244236	87.832016	36.643948
927.869324	-43.129730	111.616341	42.100105
928.247559	-35.183056	94.274315	47.555626
928.625671	-69.460854	86.344833	5.385705
929.003723	-15.817397	97.247719	35.155891
929.381775	-23.265064	95.760902	21.265024
929.759705	9.001096	113.102371	12.829620
930.137634	-1.421621	68.004280	2.407985
930.515381	-17.306910	80.892845	19.776447
930.893250	-13.831484	52.137436	30.691364
931.270935	-35.183056	91.796585	40.116070
931.648560	-39.156391	54.616940	14.814570
932.026123	-30.713543	61.558887	29.203022
932.403687	-35.679676	67.508385	14.814840
932.781250	-40.646225	73.457436	28.706945
933.158630	-25.251026	59.079674	3.400575
933.536011	-28.727127	53.129463	68.877258
933.913208	-21.278902	57.592312	15.310898
934.290527	-53.561562	44.698582	46.563911
934.667664	-27.733877	41.722698	15.807086
935.044800	-38.659473	82.379898	18.288103
935.421814	-3.903196	67.012627	40.612049
935.798889	-16.313986	55.608654	5.881978
936.175842	-26.740778	49.161789	-7.022860
936.552673	-26.244236	67.012901	19.776447
936.929504	-56.542004	47.178261	20.768883
937.306274	-41.639561	43.210594	-12.483548
937.683044	-1.917820	47.674179	12.829620
938.059570	-36.672924	37.754673	54.002533
938.436218	-37.169689	66.516869	19.776447
938.812744	1.556563	-1.940497	9.852409
939.189148	-37.169689	31.305872	6.874645
939.565613	-23.761312	56.104645	-27.378714
939.941956	-55.548550	21.879768	0.919203
940.318237	-45.116634	33.290203	22.753565
940.694458	1.060254	33.290203	11.837324
941.070557	-3.903196	24.360395	10.348645
941.446655	-38.162968	15.925432	3.400575
941.822693	-26.244236	20.391340	-18.441351
942.198669	-6.881520	11.459455	-32.841293
942.574646	-26.740778	-13.358002	-15.462306
942.950562	-12.342196	27.833237	3.400575
943.326294	-10.356535	30.809948	6.874645
943.702026	-19.789289	42.218670	11.341102
944.077698	-32.699757	23.864412	3.400575
944.453369	-36.176296	6.000613	-5.533743
944.828918	-3.903196	17.910278	-18.937557
945.204468	-52.071129	22.872166	-2.555352
945.579834	-40.149567	-0.947833	1.911683
945.955261	-17.803242	18.902742	-22.909660
946.330627	-4.399820	14.436991	-6.030111
946.705811	-29.223690	9.474665	-7.519106
947.081055	-30.713543	31.306143	-14.965858
947.456177	-63.498127	46.682198	13.325830
947.831238	-28.726856	51.641682	-32.841293
948.206238	-32.699757	-10.875759	-1.066482
948.581238	-20.782404	40.730618	16.303272
948.956116	-42.632778	49.162060	-3.548177
949.330933	-35.679676	45.194389	-12.979976
949.705811	7.511940	15.429379	-2.555352
950.080505	-81.388275	33.786240	12.829890
950.455139	-48.593777	67.012627	-25.888947
950.829773	-40.149567	-3.925874	-18.441080
951.204346	-49.587246	-24.777182	-12.979976
951.578735	-11.349221	6.000613	13.326100
951.953186	-9.363460	-13.854166	20.768883
952.327515	-44.122971	35.770489	-7.519376
952.701843	-14.824499	54.121071	11.341102
953.076172	5.527016	17.414106	-71.093224
953.450195	-19.789289	18.406445	8.859794
953.824341	-53.561562	36.266506	-10.497748
954.198486	9.000826	10.963230	-23.406176
954.572449	-24.258104	62.054688	-24.399351
954.946350	-29.720259	-8.393486	-10.994158
955.320251	-26.244236	53.129463	11.341102
955.694092	-18.796459	39.242527	1.415243
956.067871	-46.109909	-3.429658	-10.001207
956.441589	-36.672924	37.754673	-2.059013
956.815125	-31.210123	17.910545	-40.290985
957.188721	-45.613472	37.754402	-26.882166
957.562256	-32.203163	43.210594	-21.916779
957.935730	-44.123238	51.145527	10.844605
958.309021	-40.149429	14.933187	2.407985
958.682373	-15.817397	21.383629	8.859794
959.055664	-44.123238	48.666149	-10.001477
959.428955	-58.032818	8.482040	-9.008408
959.802063	-27.734011	24.360395	-4.540884
960.175110	-63.994991	51.145527	-7.519106
960.548157	-50.580730	26.841055	12.333407
960.921143	-20.782404	18.902607	-0.073699
961.294128	-39.653046	5.007931	31.683346
961.666809	-18.299713	24.360395	16.799452
962.039612	-35.679676	7.489536	-22.413284
962.412415	-35.679676	40.234634	-5.037244
962.785095	-12.838620	30.313885	13.822036
963.157715	-25.251297	9.970902	-14.469415
963.530151	-31.210123	23.368292	-24.895880
963.902649	-41.142891	9.970902	48.051548
964.275146	-25.747561	28.329185	-19.930660
964.647522	-29.223825	35.770489	-10.001477
965.019714	-3.903196	9.474665	-10.497748
965.392029	-28.230566	38.746536	16.799452
965.764160	-10.356535	-11.372172	3.896729
966.136292	-29.223690	23.368292	-22.413015
966.508423	-24.754496	-17.329592	-0.570156
966.880371	-32.203163	-9.882811	-13.972976
967.252319	-42.633049	25.848722	-11.490572
967.624207	-29.720394	44.202633	-5.037379
967.996094	4.038043	8.978152	-11.490572
968.367737	8.504714	45.194389	-19.930660
968.739441	-21.278902	39.738651	-4.044528
969.111084	-57.038803	-13.854166	-11.986991
969.482666	-18.796188	13.940790	-5.533608
969.854248	-1.917955	21.383629	-5.037244
970.225586	-18.796188	-19.315489	-14.965858
970.596985	-47.600189	25.848722	7.370904
970.968323	-29.223690	-8.393486	24.241932
971.339661	-22.768415	13.444450	45.571774
971.710754	-49.587246	29.321609	-40.290985
972.081909	-14.824499	35.274197	-16.455080
972.453064	-47.600189	22.375902	-14.469415
972.824097	-39.156124	7.985791	-6.030111
973.194946	-55.548550	26.841055	19.280293
973.565918	-14.824499	0.044813	-46.748192
973.936768	-17.803242	30.313885	-26.882166
974.307556	-11.349492	-4.918857	-7.519376
974.678284	-30.216967	-3.925874	-9.008408
975.048828	-28.727127	10.467001	-5.037244
975.419495	-28.727127	1.037578	-12.979976
975.790039	-65.485458	9.970902	10.844605
976.160522	-41.639561	23.368023	-36.814201
976.530884	-50.580730	10.467001	3.400575
976.901245	-23.264793	38.250538	-17.944609
977.271606	-15.817397	-2.933312	52.514774
977.641846	-46.606617	5.008066	-13.972976
978.012024	-34.189968	11.955812	13.325830
978.382019	3.045733	64.533646	-19.930660
978.752136	-21.775400	13.444450	-7.022995
979.122131	0.563942	2.030056	-25.392410
979.492065	-22.768415	-24.777182	8.859658
979.861877	-2.414022	6.000613	-8.015761
980.231689	-15.320946	24.856508	-10.994158
980.601440	-44.122971	13.940656	-8.015761
980.971191	-24.258104	-8.393486	-50.225430
981.340820	20.910156	25.848722	17.791666
981.710266	-33.692955	4.015368	-25.392410
982.079773	-55.051765	1.037578	6.378246
982.449280	-31.706573	23.864412	-53.702744
982.818604	-15.320946	17.414375	-18.937693
983.187866	-23.264793	7.489536	49.539146
983.557129	-50.580730	33.290203	-8.015491
983.926331	-46.109909	-26.266920	-22.413284
984.295471	-63.994991	7.489536	34.659866
984.664612	-40.149567	24.360395	-2.059013
985.033569	-14.824499	-14.847182	-3.548042
985.402527	-20.782404	18.406713	11.341102
985.771362	-9.860130	3.519080	-18.441080
986.140259	-28.727127	4.511652	0.918933
986.508911	-20.286047	-11.372172	-10.497748
986.877625	13.963462	2.030326	-5.037244
987.246277	-22.768415	12.948242	-7.519376
987.614929	-27.733877	-5.415085	-29.861519
987.983459	-26.740778	22.375902	-9.504806
988.351807	-2.414292	6.496880	-21.420006
988.720215	-44.123238	5.504342	1.911683
989.088623	-35.679676	13.444450	-35.324463
989.456909	-35.183056	61.558887	-18.441080
989.825012	-28.230433	0.541265	-9.505075
990.193115	-30.713543	1.533887	-33.834496
990.561279	-55.548687	3.022653	-2.059283
990.929321	-40.149567	31.801926	0.918933
991.297302	-19.292669	0.044813	-35.324463
991.665100	-41.639698	-16.833130	2.407985
992.033020	-49.090378	32.298248	-39.794327
992.400818	-38.162968	3.519080	-15.958623
992.768494	-43.626549	-44.145931	-16.455080
993.136047	-21.775400	-5.415085	-39.794327
993.503723	-47.600189	-4.422228	-30.854670
993.871277	-24.754496	-3.429658	-21.916779
994.238770	-19.292805	31.305872	-18.441080
994.606140	-26.740778	7.985791	12.333407
994.973450	-27.237326	-10.875489	-10.497748
995.340759	-21.775400	-0.947833	-38.304245
995.708008	0.067625	14.436991	-28.371958
996.075195	-16.313986	6.000613	-20.923643
996.442200	1.060254	29.321609	-24.399351
996.809265	-32.203430	-43.649242	-51.219063
997.176270	-36.176296	-7.400714	-26.385622
997.543152	-46.606617	-34.709133	-5.037244
997.910095	-31.706573	-18.322397	-4.044528
998.276733	37.777065	32.794025	-29.861519
998.643494	-47.600189	-10.379215	-13.476542
999.010193	-18.299713	21.383629	-16.951540
999.376831	-29.720394	-4.918857	-9.504806
999.743286	-24.754496	6.496880	-9.505075
1000.109802	0.563942	-18.322397	-22.413284
1000.476257	-28.230566	25.848722	-31.847837
1000.842651	-19.789289	-19.315489	-33.834496
1001.208923	-35.182922	-48.119610	-32.344833
1001.575134	-51.574371	7.985791	-10.994158
1001.941284	-40.149567	-3.925874	-2.059013
1002.307434	-47.103470	-17.329592	-20.427149
1002.673523	-52.567753	-14.847182	-13.972840
1003.039429	-68.467049	-27.756563	-39.794327
1003.405334	-8.370806	4.015368	-7.519106
1003.771179	8.008194	-19.811972	-9.008408
1004.137024	-20.782404	19.895056	-3.548177
1004.502808	-44.122971	-3.429658	-3.051965
1004.868408	-36.673058	0.540995	-17.944609
1005.234009	-34.189697	-24.280790	-12.483548
1005.599609	-60.517063	9.474665	-8.512150
1005.965149	-77.412331	-32.722713	-20.923643
1006.330444	-28.727127	2.030056	-3.051695
1006.695862	-10.852809	-5.911722	-24.399218
1007.061218	-46.606888	-31.232811	7.867159
1007.426453	-47.103470	6.993143	-26.882166
1007.791626	-15.817532	-3.925874	-22.909660
1008.156677	-51.077347	-2.933042	-32.841160
1008.521729	-76.915359	-12.861301	-26.385622
1008.886780	-0.428831	15.925432	-79.044662
1009.251709	-25.251026	-12.364876	-42.277794
1009.616577	-28.727127	-10.379215	11.341102
1009.981384	-69.460854	-4.422498	-11.986991
1010.346130	25.375286	-11.371902	-19.434038
1010.710754	-59.523136	-12.364876	-6.526484
1011.075439	-27.237326	-15.343629	-21.420277
1011.439941	-57.535877	11.955677	-16.951540
1011.804443	-7.874419	20.887487	-39.297810
1012.168884	-42.136372	-13.357732	-70.596306
1012.533325	-34.189968	-20.308460	3.400575
1012.897522	-10.356535	-15.840079	-18.441351
1013.261780	-18.299713	-25.273712	-41.780987
1013.626038	-41.639561	-8.889878	3.896729
1013.990112	16.940466	-27.756699	-28.371689
1014.354187	-27.237326	-16.833130	-21.916779
1014.718140	-8.370806	-27.260012	-43.767712
1015.082153	-46.109909	-18.819143	-13.476406
1015.446045	-11.349221	-7.400579	-30.854939
1015.809937	-15.320946	-36.695614	-43.767712
1016.173523	-28.726856	3.022923	-22.909660
1016.537170	-21.775400	1.037578	-25.888947
1016.900879	-19.292805	16.918066	-26.882166
1017.264404	-17.803242	24.360395	-2.555352
1017.627991	-39.156124	-31.232811	-17.448004
1017.991333	-12.838620	-22.791101	-4.540884
1018.354675	9.000826	-5.415085	6.378246
1018.718018	-18.796459	17.413971	-11.986991
1019.081299	-57.535877	-12.861301	11.837324
1019.444397	-50.580868	-32.722713	-35.820812
1019.807495	-11.845639	-5.415085	-21.420277
1020.170593	-32.699757	17.414106	-7.519376
1020.533691	-6.385145	2.526357	9.356036
1020.896606	-46.606888	-19.315489	-15.462306
1021.259460	-11.349221	-14.350739	-11.490572
1021.622253	-21.278902	-2.436970	-30.854939
1021.985046	-31.210123	11.459455	-28.868519
1022.347778	-37.169689	-20.308460	-10.001477
1022.710327	-32.700024	-24.777182	-0.569886
1023.072876	-9.363460	-18.819143	-59.664604
1023.435364	-36.672924	-9.386140	-35.820812
1023.797852	-46.109909	-32.225849	-26.882166
1024.160278	-1.421486	-7.897098	-22.909660
1024.522461	1.060254	-16.833130	-7.022860
1024.884766	-31.210123	-8.889878	-34.331100
1025.246948	-11.845909	-23.287479	-41.284317
1025.609131	-22.271906	-24.777182	-13.972840
1025.971069	-26.740778	-33.219177	4.889564
1026.333130	-48.593639	6.497015	-53.205975
1026.694946	5.030741	-16.336399	-25.392410
1027.056885	-44.619934	-18.819143	-42.277794
1027.418823	-35.679676	-7.400579	-3.548177
1027.780396	11.978484	-7.400714	-7.519106
1028.142090	-10.356669	-41.165585	-41.780987
1028.503784	-25.251026	-26.763466	-46.748192
1028.865479	-20.286047	-1.940632	-61.652069
1029.226807	-49.090511	-6.904335	-41.780987
1029.588135	-50.083988	-3.429658	-58.670830
1029.949707	-32.203163	-24.777182	-25.889082
1030.310913	-34.686306	-9.882541	-37.807739
1030.672241	-72.939590	-18.819143	-4.044528
1031.033325	-48.096912	-34.708996	-42.277794
1031.394531	-38.659473	-36.198986	-45.754635
1031.755493	-3.406980	14.933187	-25.889082
1032.116577	-3.903196	-30.736231	-44.264400
1032.477417	-26.244236	-3.925874	-25.889082
1032.838257	-39.652775	-35.702366	-51.219063
1033.199097	-41.639698	-47.126167	-53.702744
1033.559937	-15.817397	-49.609943	-12.483414
1033.920654	-26.244236	-31.232811	-10.001477
1034.281128	-37.666325	-2.933312	-35.324463
1034.641724	-12.838620	-13.854300	-18.937557
1035.002197	-32.203163	0.541265	-34.331100
1035.362671	-47.103470	-4.918587	-17.448139
1035.722900	-36.672924	-12.861301	-24.895880
1036.083252	-34.189697	-4.918587	-23.902695
1036.443481	-23.264793	-5.415085	-59.167645
1036.803711	-38.162968	-14.847182	-52.212440
1037.163940	-19.292805	-34.708996	-34.827713
1037.523804	-29.720259	-22.294592	-5.037379
1037.883789	-16.810446	-9.882541	-37.311104
1038.243774	-7.378035	-21.798086	-40.787651
1038.603638	4.038043	-10.875759	-29.861519
1038.963257	-30.713543	-59.545834	-31.847837
1039.323120	-43.129730	-16.833130	-14.469415
1039.682861	-77.412331	6.496880	-13.476406
>>>>>End Processed Spectral Data<<<<<
