Jaz Data File
++++++++++++++++++++++++++++++++++++
Date: Thu Dec 04 19:14:56 2014
User: jaz
Dark Spectrum Present: Yes
Reference Spectrum Present: Yes
Processed Spectrum Present: No
Spectrometers: JAZA2310
Integration Time (usec): 82400 (JAZA2310)
Spectra Averaged: 1 (JAZA2310)
Boxcar Smoothing: 0 (JAZA2310)
Correct for Electrical Dark: Yes (JAZA2310)
Strobe/Lamp Enabled: No (JAZA2310)
Correct for Detector Non-linearity: Yes (JAZA2310)
Correct for Stray Light: No (JAZA2310)
Number of Pixels in Processed Spectrum: 2048
>>>>>Begin Processed Spectral Data<<<<<
W	D	R	S
188.301102	0.000000	0.000000	0.000000
188.764923	0.000000	0.000000	0.000000
189.228699	-81.561295	2.707221	-56.700218
189.692459	25.202721	-12.184236	-51.732166
190.156158	-61.683556	-71.787460	-41.797462
190.619812	10.317065	-32.045151	-26.898640
191.083435	27.683344	-24.596504	54.977806
191.547043	-2.090599	-76.757088	-39.314152
192.010590	0.391169	-56.880859	-24.415827
192.474091	37.604668	47.358719	10.331910
192.937561	-14.500738	42.399143	62.415512
193.401001	15.279321	7.670116	-21.933252
193.864410	22.721992	-4.737970	79.766609
194.327759	20.241297	39.919132	37.619507
194.791077	82.230003	59.756054	0.406152
195.254349	50.003899	29.998192	-19.450647
195.717575	-14.500738	59.756054	54.977806
196.180786	0.391169	47.358719	35.139431
196.643951	-39.329010	-17.148802	52.498455
197.107071	-76.591255	-64.333618	25.217697
197.570145	-7.054314	15.113743	-7.039330
198.033203	0.391169	-51.912930	-69.121925
198.496216	57.442223	32.478619	-34.347580
198.959167	-9.536396	27.517801	45.059380
199.422089	20.241297	-17.148802	7.850694
199.884979	-2.090599	-37.011532	10.331910
200.347855	-74.106323	15.113743	-29.381559
200.810654	-51.747162	-29.562252	15.294299
201.273422	-96.474228	-39.494743	-71.606644
201.736160	-56.715080	-32.045151	-61.668556
202.198853	-29.396549	25.037170	-14.485888
202.661514	-111.390869	-9.702043	-14.485888
203.124130	-56.715080	-39.494743	-29.381559
203.586700	-59.199261	-29.562252	-36.830814
204.049240	-51.747162	-7.219954	-116.349022
204.511734	-9.536396	-27.079325	-39.314152
204.974197	-21.948105	-49.429050	-41.797462
205.436615	-49.263294	-79.242134	40.099613
205.899002	45.044540	-34.528286	67.373558
206.361343	-66.652321	-94.154343	-51.732166
206.823654	22.721992	-22.113787	2.887680
207.285919	-26.913630	-66.818123	5.369239
207.748123	-71.621643	-51.912930	-89.002342
208.210327	-12.018582	-39.494743	10.331910
208.672485	-19.465635	-64.333618	-34.347580
209.134583	-36.845806	-54.396908	-19.450647
209.596649	2.872833	-14.666399	27.698185
210.058670	20.241297	-59.365051	-26.898640
210.520676	0.391169	-17.148802	-69.121925
210.982635	-7.054314	-22.113787	12.813156
211.444534	12.798177	-32.045151	12.813156
211.906403	54.962975	-44.461754	35.139431
212.368240	45.044540	-29.562252	-24.415827
212.830048	-121.337494	-49.429050	0.406152
213.291779	40.084641	42.399143	2.887680
213.753494	0.391169	-41.978195	32.659122
214.215179	40.084641	-32.045151	-74.091461
214.676819	32.644146	-101.611877	37.619507
215.138412	-16.983133	-51.912930	-16.968147
215.599960	-14.500738	-89.183220	-56.700218
216.061493	-49.263294	0.225550	-161.126007
216.522949	-12.018582	42.399143	-56.700218
216.984406	-59.199261	-74.272156	-19.450647
217.445801	-64.167816	10.151474	25.217697
217.907166	-4.572337	-17.148802	-66.637321
218.368484	-39.329010	10.151474	-51.732166
218.829773	0.391169	-96.640121	10.331910
219.291031	-54.231133	-89.183220	-59.184269
219.752228	-34.362572	-14.666399	-51.732166
220.213379	-103.932076	-71.787460	-21.933252
220.674500	-56.715080	-79.242134	-93.973442
221.135574	0.391169	-34.528286	-36.830814
221.596634	-36.845806	-76.757088	-84.031532
222.057648	-54.231133	-34.528286	-34.347580
222.518600	-71.621643	-109.070381	-64.152954
222.979553	-59.199261	22.556437	-46.764671
223.440430	2.872833	-34.528286	-89.002342
223.901276	-71.621643	-29.562252	-76.576256
224.362076	-4.572337	-39.494743	45.059380
224.822845	-59.199261	-56.880859	-41.797462
225.283569	-74.106323	-37.011532	-26.898640
225.744278	-16.983133	-46.945415	-116.349022
226.204910	32.644146	17.594790	10.331910
226.665512	-31.879438	-2.256225	-29.381559
227.126114	-128.798553	-41.978195	42.579617
227.586639	-54.231133	-61.849350	-14.485888
228.047119	-12.018582	-24.596504	-46.764671
228.507568	-34.362572	-29.562252	-59.184269
228.967972	-84.046539	49.838417	-56.700218
229.428345	-14.500738	-54.396908	-49.248432
229.888687	-54.231133	-51.912930	27.698185
230.348984	-2.090599	-79.242134	-7.039330
230.809219	-44.296009	-24.596504	-56.700218
231.269440	-24.430815	-46.945415	-2.075616
231.729614	5.354258	-61.849350	-71.606644
232.189758	-54.231133	-51.912930	-41.797462
232.649841	-103.932076	-34.528286	-76.576256
233.109894	0.391169	-56.880859	-66.637321
233.569901	0.391169	-12.184236	-29.381559
234.029892	-36.845806	-56.880859	-2.075616
234.489822	22.721992	-37.011532	-36.830814
234.949707	-76.591255	-12.184236	-2.075616
235.409561	-64.167816	-69.302742	32.659122
235.869385	-61.683556	-54.396908	-39.314152
236.329163	-69.136925	-123.990417	-96.459221
236.788895	-7.054314	22.556437	-51.732166
237.248581	25.202721	-106.584198	-14.485888
237.708237	-14.500738	-49.429050	-21.933252
238.167847	20.241297	-51.912930	-76.576256
238.627441	-44.296009	-41.978195	-9.521411
239.086960	-39.329010	-119.016594	-96.459221
239.546463	-4.572337	-51.912930	-86.516884
240.005920	-21.948105	7.670116	-16.968147
240.465332	57.442223	-51.912930	-24.415827
240.924698	-29.396549	-66.818123	-41.797462
241.384033	-91.502777	-37.011532	-86.516884
241.843338	52.483486	29.998192	-41.797462
242.302597	-12.018582	44.879051	-14.485888
242.761810	-31.879438	-24.596504	-21.933252
243.220993	47.524204	-39.494743	20.256138
243.680115	-34.362572	-14.666399	-29.381559
244.139221	-93.988449	-74.272156	-39.314152
244.598282	-61.683556	-19.631310	-44.281013
245.057297	-31.879438	37.439156	12.813156
245.516266	-9.536396	-41.978195	-41.797462
245.975189	-21.948105	-27.079325	-56.700218
246.434082	30.163729	12.632593	0.406152
246.892944	-59.199261	20.075733	7.850694
247.351761	-14.500738	-86.697754	-29.381559
247.810516	5.354258	-4.737970	25.217697
248.269272	-64.167816	-2.256225	15.294299
248.727951	-36.845806	22.556437	-84.031532
249.186600	-21.948105	-49.429050	-89.002342
249.645218	-93.988449	5.188653	-71.606644
250.103790	-44.296009	-91.668663	40.099613
250.562317	15.279321	0.225550	-91.487907
251.020813	0.391169	-89.183220	-64.152954
251.479279	-34.362572	-99.125877	-39.314152
251.937668	-61.683556	32.478619	-36.830814
252.396057	-81.561295	-39.494743	-14.485888
252.854385	-96.474228	-71.787460	22.736969
253.312683	-21.948105	-24.596504	-26.898640
253.770920	-126.311371	-54.396908	59.936474
254.229126	-81.561295	-99.125877	-34.347580
254.687302	-4.572337	-61.849350	-81.546425
255.145432	-49.263294	-94.154343	-9.521411
255.603500	-31.879438	-49.429050	-14.485888
256.061584	37.604668	-37.011532	-81.546425
256.519592	15.279321	7.670116	-16.968147
256.977570	-12.018582	29.998192	-39.314152
257.435455	17.760361	-32.045151	-34.347580
257.893372	-89.017349	-27.079325	-14.485888
258.351196	-29.396549	-89.183220	-69.121925
258.808990	-29.396549	-44.461754	64.894592
259.266754	-31.879438	20.075733	-79.061287
259.724487	-54.231133	-59.365051	-29.381559
260.182190	-103.932076	-59.365051	-2.075616
260.639832	-59.199261	-9.702043	0.406152
261.097443	-39.329010	-109.070381	-66.637321
261.554993	35.124458	-24.596504	27.698185
262.012512	-44.296009	-41.978195	-9.521411
262.469971	17.760361	-71.787460	-51.732166
262.927429	-39.329010	-84.212395	40.099613
263.384827	-2.090599	-34.528286	17.775339
263.842194	-64.167816	-19.631310	0.406152
264.299530	67.358597	-32.045151	-24.415827
264.756805	-66.652321	-81.727142	-21.933252
265.214050	-74.106323	-46.945415	-16.968147
265.671234	-59.199261	-14.666399	12.813156
266.128387	-14.500738	-49.429050	30.178703
266.585510	-103.932076	-86.697754	-74.091461
267.042572	-66.652321	12.632593	-49.248432
267.499573	-29.396549	-69.302742	-29.381559
267.956604	-41.812458	-17.148802	-71.606644
268.413574	-21.948105	-19.631310	-39.314152
268.870483	-51.747162	-2.256225	-111.375862
269.327362	-19.465635	-34.528286	17.775339
269.784180	-89.017349	-9.702043	15.294299
270.240936	-126.311371	-46.945415	-69.121925
270.697693	-29.396549	-34.528286	-34.347580
271.154419	-89.017349	-96.640121	-74.091461
271.611053	-59.199261	-56.880859	-31.864586
272.067688	15.279321	-27.079325	-46.764671
272.524292	35.124458	-59.365051	-64.152954
272.980835	0.391169	-59.365051	-64.152954
273.437347	5.354258	-56.880859	-84.031532
273.893799	-36.845806	-54.396908	-39.314152
274.350250	-69.136925	-79.242134	-34.347580
274.806610	-34.362572	-27.079325	-59.184269
275.262939	-14.500738	-44.461754	-24.415827
275.719238	-79.076286	-49.429050	7.850694
276.175507	-34.362572	17.594790	-59.184269
276.631714	-59.199261	-14.666399	-96.459221
277.087891	-54.231133	-56.880859	-93.973442
277.544067	-66.652321	10.151474	-49.248432
278.000122	-64.167816	-51.912930	30.178703
278.456177	-7.054314	22.556437	10.331910
278.912201	-64.167816	-46.945415	-49.248432
279.368164	7.835713	10.151474	-26.898640
279.824097	-39.329010	-4.737970	-96.459221
280.279968	-12.018582	-44.461754	-71.606644
280.735840	-86.531891	-29.562252	-91.487907
281.191620	15.279321	-12.184236	-16.968147
281.647400	-56.715080	-123.990417	-29.381559
282.103149	-34.362572	20.075733	57.457191
282.558838	-54.231133	-49.429050	37.619507
283.014465	-51.747162	-12.184236	-44.281013
283.470062	-59.199261	-66.818123	-44.281013
283.925629	-14.500738	-44.461754	10.331910
284.381134	-71.621643	-4.737970	-71.606644
284.836639	-21.948105	2.707221	-36.830814
285.292053	-81.561295	-116.529854	-34.347580
285.747467	-9.536396	-37.011532	-76.576256
286.202820	-14.500738	-39.494743	-26.898640
286.658142	27.683344	-19.631310	52.498455
287.113434	12.798177	-22.113787	-12.003596
287.568634	25.202721	-29.562252	-39.314152
288.023804	-29.396549	-34.528286	-41.797462
288.478973	-36.845806	25.037170	-19.450647
288.934113	-98.959984	-37.011532	-21.933252
289.389130	-12.018582	-99.125877	-24.415827
289.844208	-54.231133	0.225550	-16.968147
290.299164	-34.362572	-29.562252	-29.381559
290.754089	-56.715080	-27.079325	0.406152
291.208984	-36.845806	-7.219954	-51.732166
291.663879	12.798177	-37.011532	-56.700218
292.118683	-64.167816	-99.125877	-44.281013
292.573456	-4.572337	15.113743	-49.248432
293.028198	-61.683556	-119.016594	0.406152
293.482849	-54.231133	-37.011532	-12.003596
293.937561	-19.465635	-22.113787	22.736969
294.392151	-26.913630	-94.154343	-14.485888
294.846741	-16.983133	10.151474	20.256138
295.301239	-2.090599	-24.596504	-81.546425
295.755737	-61.683556	-19.631310	-31.864586
296.210175	-9.536396	17.594790	17.775339
296.664581	-131.285828	17.594790	-26.898640
297.118958	-81.561295	-44.461754	17.775339
297.573242	-39.329010	-39.494743	-31.864586
298.027557	-34.362572	-29.562252	-12.003596
298.481812	-148.699524	-19.631310	-79.061287
298.935974	-59.199261	-51.912930	0.406152
299.390137	-86.531891	-32.045151	-41.797462
299.844238	-151.187531	-39.494743	-19.450647
300.298340	-54.231133	-19.631310	22.736969
300.752350	-46.779667	-34.528286	-86.516884
301.206360	-51.747162	-7.219954	-29.381559
301.660278	-24.430815	-17.148802	62.415512
302.114197	-133.773087	-54.396908	10.331910
302.568054	-86.531891	20.075733	-26.898640
303.021881	-16.983133	-24.596504	-31.864586
303.475677	-24.430815	-22.113787	-39.314152
303.929413	-136.260574	-81.727142	-7.039330
304.383118	-64.167816	44.879051	-66.637321
304.836761	57.442223	-9.702043	-39.314152
305.290375	-46.779667	0.225550	17.775339
305.743958	-14.500738	15.113743	-108.889580
306.197510	37.604668	-37.011532	17.775339
306.650970	-54.231133	-69.302742	-7.039330
307.104431	-2.090599	47.358719	-14.485888
307.557800	22.721992	-14.666399	-76.576256
308.011169	37.604668	-76.757088	-103.917061
308.464508	25.202721	-39.494743	12.813156
308.917755	-93.988449	-79.242134	79.766609
309.371063	-36.845806	-19.631310	-69.121925
309.824219	-24.430815	-17.148802	-7.039330
310.277374	-41.812458	-69.302742	-59.184269
310.730499	-49.263294	-7.219954	25.217697
311.183563	-9.536396	7.670116	-14.485888
311.636597	-29.396549	-37.011532	-26.898640
312.089569	45.044540	-9.702043	-59.184269
312.542511	-21.948105	-46.945415	30.178703
312.995422	-12.018582	-81.727142	-12.003596
313.448273	-69.136925	-37.011532	42.579617
313.901093	-31.879438	-2.256225	-49.248432
314.353882	-36.845806	-32.045151	2.887680
314.806580	0.391169	62.235233	-12.003596
315.259308	-79.076286	57.276764	-26.898640
315.711975	-89.017349	-19.631310	-69.121925
316.164581	-93.988449	17.594790	-69.121925
316.617126	-34.362572	-64.333618	-26.898640
317.069672	-56.715080	32.478619	-36.830814
317.522156	-59.199261	0.225550	-31.864586
317.974579	-81.561295	-39.494743	-36.830814
318.427002	-89.017349	54.797504	-79.061287
318.879333	25.202721	-19.631310	-74.091461
319.331665	-46.779667	-27.079325	45.059380
319.783936	-34.362572	-17.148802	20.256138
320.236176	-19.465635	-37.011532	-34.347580
320.688354	-26.913630	34.958935	50.018867
321.140503	-29.396549	-56.880859	40.099613
321.592651	-51.747162	-111.556808	-49.248432
322.044647	-19.465635	-61.849350	-69.121925
322.496704	-29.396549	7.670116	-36.830814
322.948639	-64.167816	-9.702043	5.369239
323.400604	25.202721	-71.787460	-59.184269
323.852509	17.760361	-69.302742	-91.487907
324.304352	-49.263294	-119.016594	-66.637321
324.756165	-16.983133	-27.079325	-29.381559
325.207916	-39.329010	-49.429050	-29.381559
325.659668	5.354258	-99.125877	-86.516884
326.111328	-108.904449	-96.640121	-113.862389
326.562988	0.391169	-9.702043	17.775339
327.014557	-69.136925	-19.631310	50.018867
327.466156	25.202721	5.188653	-36.830814
327.917664	-81.561295	-96.640121	-21.933252
328.369110	-91.502777	-9.702043	-39.314152
328.820557	-54.231133	-44.461754	-34.347580
329.271942	-56.715080	-14.666399	-14.485888
329.723297	-12.018582	-51.912930	-34.347580
330.174561	-79.076286	-22.113787	-54.216141
330.625854	-141.235748	-104.097984	-31.864586
331.077026	-86.531891	-51.912930	-19.450647
331.528229	-76.591255	-71.787460	-89.002342
331.979370	-19.465635	-29.562252	15.294299
332.430450	-66.652321	-4.737970	-34.347580
332.881500	-54.231133	-61.849350	50.018867
333.332489	-16.983133	39.919132	-39.314152
333.783478	2.872833	-71.787460	45.059380
334.234406	-51.747162	-51.912930	-79.061287
334.685303	-34.362572	0.225550	0.406152
335.136078	-108.904449	-89.183220	10.331910
335.586914	-118.850647	-131.451813	-9.521411
336.037659	-44.296009	-59.365051	-91.487907
336.488342	-51.747162	-54.396908	7.850694
336.939026	-51.747162	-41.978195	45.059380
337.389648	-111.390869	-84.212395	-12.003596
337.840240	5.354258	-46.945415	-64.152954
338.290771	-34.362572	-111.556808	40.099613
338.741272	15.279321	-44.461754	-24.415827
339.191681	-103.932076	-49.429050	-54.216141
339.642120	-74.106323	-49.429050	-41.797462
340.092468	-26.913630	-54.396908	-131.270813
340.542816	-4.572337	-61.849350	-14.485888
340.993103	-121.337494	-49.429050	-56.700218
341.443329	-79.076286	25.037170	-16.968147
341.893555	37.604668	-96.640121	10.331910
342.343689	-12.018582	-49.429050	10.331910
342.793793	-66.652321	12.632593	-26.898640
343.243866	-34.362572	-49.429050	27.698185
343.693878	22.721992	-101.611877	-19.450647
344.143890	-31.879438	54.797504	-64.152954
344.593842	-59.199261	5.188653	-36.830814
345.043732	-2.090599	-89.183220	-14.485888
345.493591	-86.531891	-101.611877	-14.485888
345.943359	-64.167816	-46.945415	-29.381559
346.393158	-59.199261	5.188653	5.369239
346.842896	-126.311371	-41.978195	-46.764671
347.292542	-7.054314	-44.461754	-31.864586
347.742218	-79.076286	39.919132	-21.933252
348.191803	-108.904449	-59.365051	-7.039330
348.641357	-76.591255	7.670116	-19.450647
349.090881	-108.904449	-81.727142	-19.450647
349.540314	-61.683556	-44.461754	12.813156
349.989777	-12.018582	-69.302742	-12.003596
350.439148	-89.017349	-49.429050	-2.075616
350.888489	-26.913630	-84.212395	-39.314152
351.337799	-61.683556	-56.880859	2.887680
351.787048	-66.652321	42.399143	-59.184269
352.236267	-16.983133	22.556437	-24.415827
352.685425	-12.018582	29.998192	-49.248432
353.134552	-9.536396	-44.461754	-54.216141
353.583649	-49.263294	32.478619	20.256138
354.032684	-24.430815	-12.184236	-49.248432
354.481659	-26.913630	-24.596504	-4.557488
354.930634	30.163729	-14.666399	-34.347580
355.379517	15.279321	27.517801	-12.003596
355.828430	-4.572337	-69.302742	-61.668556
356.277222	-69.136925	25.037170	-61.668556
356.726013	-69.136925	49.838417	-36.830814
357.174774	-21.948105	-34.528286	-12.003596
357.623444	-74.106323	7.670116	-49.248432
358.072113	-16.983133	-56.880859	-29.381559
358.520721	-51.747162	-9.702043	-9.521411
358.969299	-31.879438	-104.097984	-16.968147
359.417786	-16.983133	-76.757088	17.775339
359.866302	5.354258	2.707221	-123.809433
360.314697	-14.500738	-44.461754	35.139431
360.763123	-56.715080	-76.757088	-29.381559
361.211456	-2.090599	-41.978195	-19.450647
361.659760	-36.845806	-34.528286	-49.248432
362.108032	-64.167816	32.478619	-74.091461
362.556244	-51.747162	-71.787460	-2.075616
363.004456	-49.263294	-2.256225	10.331910
363.452576	-46.779667	0.225550	-36.830814
363.900696	-98.959984	-29.562252	0.406152
364.348663	-41.812458	-24.596504	5.369239
364.796722	-74.106323	-14.666399	-19.450647
365.244690	-96.474228	-69.302742	15.294299
365.692596	-51.747162	-32.045151	-51.732166
366.140472	69.837463	22.556437	-69.121925
366.588287	-9.536396	-37.011532	-31.864586
367.036102	-39.329010	-32.045151	-12.003596
367.483826	-26.913630	42.399143	-51.732166
367.931549	-49.263294	54.797504	-71.606644
368.379181	-91.502777	-69.302742	-21.933252
368.826843	-39.329010	-51.912930	-19.450647
369.274384	-98.959984	-51.912930	-24.415827
369.721924	-91.502777	-76.757088	-59.184269
370.169403	-66.652321	-111.556808	-36.830814
370.616821	-19.465635	-39.494743	-61.668556
371.064270	-46.779667	-89.183220	-51.732166
371.511566	-16.983133	-91.668663	-66.637321
371.958923	-98.959984	-39.494743	-51.732166
372.406158	-84.046539	-61.849350	-69.121925
372.853424	-4.572337	-141.401764	5.369239
373.300568	-21.948105	-49.429050	-16.968147
373.747711	-21.948105	-9.702043	-49.248432
374.194794	-36.845806	-17.148802	-29.381559
374.641846	-66.652321	-4.737970	-76.576256
375.088898	-66.652321	-4.737970	-64.152954
375.535828	40.084641	-46.945415	-24.415827
375.982758	27.683344	-12.184236	-24.415827
376.429596	25.202721	52.318012	-26.898640
376.876465	-29.396549	-54.396908	25.217697
377.323242	12.798177	-76.757088	-34.347580
377.769989	-89.017349	-56.880859	-4.557488
378.216675	-66.652321	7.670116	30.178703
378.663330	-66.652321	57.276764	-34.347580
379.109985	-19.465635	-56.880859	-31.864586
379.556519	-54.231133	25.037170	-24.415827
380.003052	-9.536396	-79.242134	-31.864586
380.449524	-69.136925	-17.148802	-16.968147
380.895996	-26.913630	-34.528286	-39.314152
381.342377	5.354258	-32.045151	-91.487907
381.788727	-64.167816	-17.148802	-49.248432
382.235046	12.798177	-27.079325	-16.968147
382.681274	-41.812458	-51.912930	-44.281013
383.127533	-93.988449	-51.912930	-2.075616
383.573669	-44.296009	-44.461754	-74.091461
384.019836	-136.260574	5.188653	0.406152
384.465912	-61.683556	-54.396908	-66.637321
384.911957	-64.167816	-44.461754	-29.381559
385.357971	-86.531891	-7.219954	-2.075616
385.803925	-31.879438	-24.596504	47.539177
386.249847	-69.136925	-51.912930	-19.450647
386.695679	-76.591255	-7.219954	-36.830814
387.141541	-59.199261	29.998192	-46.764671
387.587311	47.524204	-71.787460	-131.270813
388.033051	-111.390869	-2.256225	27.698185
388.478729	-44.296009	74.629349	5.369239
388.924408	-4.572337	-7.219954	-9.521411
389.369995	-39.329010	54.797504	45.059380
389.815552	-19.465635	37.439156	12.813156
390.261078	-24.430815	39.919132	72.331062
390.706543	10.317065	64.714180	-26.898640
391.152008	-21.948105	-39.494743	22.736969
391.597351	-74.106323	22.556437	22.736969
392.042725	-98.959984	42.399143	7.850694
392.487976	22.721992	54.797504	111.976875
392.933289	-7.054314	106.842232	27.698185
393.378479	-26.913630	67.193161	116.930702
393.823639	-7.054314	111.796616	136.742203
394.268768	-56.715080	126.657043	116.930702
394.713837	-69.136925	173.691254	131.789871
395.158905	-69.136925	141.513840	210.977798
395.603851	7.835713	153.891800	173.871216
396.048798	32.644146	176.165649	126.837257
396.493683	-24.430815	282.474060	248.061890
396.938568	-44.296009	237.995178	235.703049
397.383392	-4.572337	255.296356	250.533417
397.828156	7.835713	302.232330	233.230927
398.272888	-76.591255	329.389923	341.909851
398.717560	-64.167816	319.515686	285.123962
399.162201	-79.076286	371.337341	285.123962
399.606781	12.798177	393.533752	322.164063
400.051361	-143.723557	410.792236	248.061890
400.495819	-86.531891	423.116791	383.848999
400.940308	-64.167816	494.553162	415.901550
401.384705	-93.988449	489.628998	425.760803
401.829102	7.835713	460.076538	447.938080
402.273438	-26.913630	546.234009	470.108002
402.717682	-128.798553	585.582336	605.426758
403.161926	-71.621643	688.761536	860.556885
403.606110	-21.948105	1625.221680	2082.182129
404.050293	15.279321	4101.542969	4045.042725
404.494385	-91.502777	8086.862793	6380.607910
404.938446	-19.465635	9502.863281	6875.093262
405.382477	-34.362572	7867.345703	6088.543945
405.826447	-69.136925	4565.626465	4692.671875
406.270386	-69.136925	2847.570801	3566.854492
406.714233	-91.502777	1690.632813	2498.164795
407.158081	0.391169	1380.052734	1669.011108
407.601868	-34.362572	1397.069702	1474.989868
408.045624	-4.572337	1552.479248	1436.128174
408.489319	-69.136925	1394.638916	1275.614014
408.933014	-26.913630	1173.113159	1170.852539
409.376617	-79.076286	948.473755	1119.635742
409.820190	-56.715080	924.013855	1117.195923
410.263702	-26.913630	950.919312	946.206116
410.707184	-29.396549	943.582397	850.761780
411.150635	-41.812458	1031.574097	943.760376
411.594025	-24.430815	985.147705	946.206116
412.037384	-51.747162	1026.688477	963.323486
412.480682	-89.017349	994.924072	995.101929
412.923981	-26.913630	1043.786621	955.987854
413.367126	-76.591255	1021.802673	1034.194580
413.810333	-49.263294	1180.426514	1063.500000
414.253479	-29.396549	1190.176880	1029.309082
414.696533	-39.329010	1104.818359	1144.028931
415.139587	-66.652321	1219.419800	1092.793579
415.582581	-59.199261	1153.606689	1068.383179
416.025543	-14.500738	1141.412476	1173.290283
416.468414	-41.812458	1236.473022	1129.393921
416.911285	2.872833	1265.697876	1124.514893
417.354065	-103.932076	1309.513672	1119.635742
417.796875	-24.430815	1287.609131	1195.228760
418.239594	-49.263294	1168.236938	1290.220215
418.682281	-44.296009	1212.110107	1212.287476
419.124908	-54.231133	1307.080322	1207.413818
419.567505	-31.879438	1326.546387	1256.134521
420.010071	-21.948105	1426.232666	1319.424438
420.452545	-16.983133	1457.813843	1299.956299
420.895020	-26.913630	1445.668579	1258.569702
421.337372	20.241297	1474.813477	1421.549927
421.779785	40.084641	1494.236938	1482.274536
422.222107	-26.913630	1477.241455	1399.677368
422.664368	-9.536396	1569.458374	1453.132690
423.106628	-14.500738	1537.922852	1523.540039
423.548798	-49.263294	1584.009033	1433.698608
423.990967	-44.296009	1620.374146	1494.413696
424.433044	-106.418274	1685.789185	1579.335571
424.875092	-21.948105	1656.722534	1618.126709
425.317078	-7.054314	1787.440796	1656.898560
425.759064	-64.167816	1729.369751	1673.855469
426.200989	-66.652321	1806.788696	1649.630371
426.642853	-7.054314	1821.296509	1780.360107
427.084686	-31.879438	1763.249512	1705.337524
427.526459	-59.199261	1840.636353	1700.494873
427.968201	-56.715080	1833.384399	1731.966431
428.409912	0.391169	1828.549316	1712.600586
428.851563	-116.363899	1949.338867	1799.709717
429.293121	-12.018582	1934.853394	1809.382568
429.734711	-14.500738	2024.140747	1845.646362
430.176239	-26.913630	2060.311523	1906.050415
430.617706	-34.362572	1859.971558	1828.725220
431.059113	-4.572337	1946.924683	1860.147339
431.500488	-81.561295	2050.667725	1838.395020
431.941833	12.798177	2144.650635	2002.606567
432.383087	-113.877396	2161.508545	1983.304199
432.824341	-103.932076	2175.955566	1980.890991
433.265533	2.872833	2341.925293	2111.100342
433.706726	-69.136925	2329.908936	2339.697021
434.147827	-36.845806	2720.819824	2804.716553
434.588867	-4.572337	4280.811523	5210.458984
435.029877	-76.591255	10597.763672	12539.260742
435.470825	-98.959984	28326.328125	23654.966797
435.911804	-54.231133	39607.050781	29817.458984
436.352661	-29.396549	39206.968750	29988.847656
436.793518	40.084641	24827.357422	23474.189453
437.234283	-71.621643	16107.363281	18082.908203
437.675049	-54.231133	10503.458008	14799.952148
438.115723	2.872833	6865.700684	10062.753906
438.556396	-4.572337	4311.445801	5767.864258
438.997040	-39.329010	3057.654297	3815.687500
439.437561	-61.683556	2790.195313	2845.354980
439.878113	-59.199261	2646.603027	2644.382324
440.318573	-29.396549	2584.310791	2579.691650
440.759033	-64.167816	2519.577881	2517.354004
441.199341	-19.465635	2680.127686	2613.240479
441.639709	-79.076286	2651.393066	2478.971191
442.079956	-12.018582	2670.550293	2570.104248
442.520264	-54.231133	2694.491211	2375.736816
442.960510	-36.845806	2677.733154	2677.907715
443.400604	-101.445969	2689.704102	2639.591797
443.840759	-111.390869	2766.278320	2584.485107
444.280762	-29.396549	2775.845703	2725.779785
444.720825	17.760361	2852.350586	2637.196777
445.160767	-9.536396	2897.746094	2646.777100
445.600739	62.400681	2933.569336	2713.813965
446.040558	-39.329010	2916.853516	2701.846924
446.480438	-89.017349	2981.313477	2709.027344
446.920258	2.872833	3017.105713	2771.236572
447.359955	-71.621643	3040.959717	2809.498047
447.799713	-7.054314	3088.650879	2936.131104
448.239319	-49.263294	3043.345215	2852.524414
448.678955	20.241297	3050.500000	2943.293701
449.118500	-44.296009	3174.436279	2890.753662
449.558014	45.044540	3179.199951	2866.862305
449.997498	-41.812458	3002.790527	3041.133545
450.436951	-93.988449	3214.920654	2971.939697
450.876343	-26.913630	3110.104492	3157.935059
451.315674	-59.199261	3195.871094	3131.726318
451.754974	-51.747162	3300.596680	3002.964111
452.194183	-59.199261	3322.004639	3226.997314
452.633392	-54.231133	3274.425537	3181.755127
453.072510	-7.054314	3374.314941	3141.257813
453.511688	-51.747162	3248.247803	3150.787842
453.950684	-29.396549	3457.480957	3217.474365
454.389740	-21.948105	3388.577148	3260.320801
454.828735	-4.572337	3424.222656	3131.726318
455.267639	-74.106323	3469.356201	3312.663818
455.706543	-46.779667	3440.853271	3124.577637
456.145325	-101.445969	3519.217529	3226.997314
456.584137	7.835713	3538.206055	3364.979004
457.022858	10.317065	3443.229248	3234.138916
457.461578	47.524204	3419.470703	3165.081787
457.900208	-59.199261	3552.444824	3269.839844
458.338867	59.921501	3374.314941	3410.138916
458.777405	-54.231133	3490.728516	3343.580566
459.215912	12.798177	3469.356201	3521.764160
459.654388	-96.474228	3507.347900	3452.903564
460.092773	-12.018582	3559.563965	3433.899170
460.531189	-14.500738	3647.321289	3322.177246
460.969513	-64.167816	3547.698730	3509.894775
461.407806	-21.948105	3708.944580	3509.894775
461.846008	27.683344	3749.217773	3673.569580
462.284241	-34.362572	3718.422119	3455.278564
462.722351	-66.652321	3661.545654	3462.404053
463.160461	37.604668	3663.916016	3543.125244
463.598541	-98.959984	3848.648926	3711.486572
464.036530	-12.018582	3803.679932	3697.269775
464.474518	-34.362572	3926.707764	3829.888916
464.912384	-44.296009	4059.041748	3851.187256
465.350281	7.835713	4021.248779	3782.543945
465.788086	-51.747162	4082.655518	3912.691650
466.225891	-91.502777	4099.182617	4014.332764
466.663605	-69.136925	4198.290039	3957.614990
467.101318	42.564644	4403.300293	4054.489746
467.539001	-14.500738	4285.524902	4033.231934
467.976563	52.483486	4363.270996	4144.199219
468.414124	-74.106323	4504.487305	4073.382568
468.851593	-101.445969	4591.482422	4266.840820
469.289063	-106.418274	4624.381836	4495.249512
469.726440	-12.018582	4739.455078	4464.665527
470.163849	-39.329010	4645.526855	4422.304199
470.601135	37.604668	4917.708008	4572.849609
471.038422	-9.536396	4943.484375	4716.150879
471.475677	-29.396549	4905.988281	4678.581055
471.912811	-16.983133	5062.919434	4847.548340
472.350006	-51.747162	5207.951660	4863.962402
472.787048	45.044540	5156.509277	4882.718750
473.224121	-51.747162	5238.338379	4964.740723
473.661072	-14.500738	5441.497070	5032.657227
474.098053	-4.572337	5427.497559	5348.304199
474.534943	-29.396549	5553.436523	5345.969238
474.971802	-7.054314	5607.037109	5355.309082
475.408630	-86.531891	5758.387207	5527.962891
475.845367	-106.418274	5681.571289	5492.985352
476.282104	-9.536396	5821.200195	5574.583008
476.718750	-39.329010	5742.097168	5805.087891
477.155426	-29.396549	6095.336426	5860.901855
477.591949	-56.715080	6144.059570	5856.251465
478.028503	-26.913630	6206.674805	5921.337891
478.464966	-74.106323	6253.035645	5916.689941
478.901428	-91.502777	6401.275391	6095.505859
479.337860	-49.263294	6586.326660	6232.344238
479.774170	-49.263294	6637.167969	6144.228516
480.210510	-84.046539	6473.015137	6318.081055
480.646698	-54.231133	6833.408203	6531.007813
481.082947	-76.591255	7013.220215	6429.218262
481.519073	17.760361	7149.062988	6757.424805
481.955200	-51.747162	7199.679688	6789.736816
482.391266	-49.263294	7183.576660	6745.882813
482.827301	-98.959984	7303.151367	6971.915039
483.263306	-7.054314	7215.780762	6962.696777
483.699188	-19.465635	7234.179688	7123.914551
484.135101	-84.046539	7293.958008	6930.428711
484.570923	42.564644	7401.947754	6831.268555
485.006744	-19.465635	7418.023438	7165.337891
485.442413	-39.329010	7622.243652	7112.406250
485.878174	-2.090599	7764.320801	7427.375977
486.313782	-14.500738	7759.740723	7330.897461
486.749390	12.798177	7729.961426	7429.671875
487.184998	-46.779667	7709.341309	7448.040039
487.620453	-39.329010	7839.879883	7454.928223
488.055939	40.084641	7869.633789	7551.314453
488.491333	-14.500738	7974.863281	7459.519531
488.926727	-61.683556	7977.149902	7626.996582
489.362030	20.241297	7844.458496	7335.493652
489.797302	-81.561295	8036.589355	7620.117676
490.232513	-56.715080	8025.160645	7725.546875
490.667755	12.798177	7844.458496	7431.968750
491.102905	-76.591255	8191.919922	7993.321777
491.537964	-26.913630	8372.152344	7874.377930
491.973022	-29.396549	8157.671387	7988.749512
492.407990	-36.845806	8230.724609	7805.706543
492.842957	-66.652321	8264.954102	8084.744141
493.277832	-7.054314	8118.845215	8011.611816
493.712738	-131.285828	8171.371582	8144.135742
494.147491	-84.046539	8201.051758	7862.935547
494.582275	-81.561295	8230.724609	7972.742676
495.017029	-86.531891	8166.805664	7789.679199
495.451660	-19.465635	8394.949219	7920.138184
495.886292	-56.715080	8435.973633	7785.099121
496.320831	-14.500738	8331.107422	8123.580078
496.755402	12.798177	8221.595703	7878.954102
497.189850	-91.502777	8431.416016	8048.183105
497.624298	-21.948105	8358.471680	8123.580078
498.058655	10.317065	8479.264648	7917.850586
498.493042	-36.845806	8347.071289	7954.447754
498.927368	-76.591255	8351.630859	7984.175781
499.361572	-141.235748	8285.488281	7821.733887
499.795807	-16.983133	8306.019531	8055.039551
500.229919	-93.988449	8333.388672	8050.468262
500.664063	-91.502777	8420.021484	7872.089844
501.098083	-113.877396	8274.081055	8004.752930
501.532104	-51.747162	8490.654297	7858.357422
501.966064	-46.779667	8148.537109	7988.749512
502.399994	-71.621643	8474.708008	8011.611816
502.833893	32.644146	8315.143555	8013.897461
503.267700	-46.779667	8267.236328	7975.029297
503.701477	-41.812458	8337.949219	8212.630859
504.135193	15.279321	8408.625977	8059.609375
504.568909	-16.983133	8312.862305	8043.612305
505.002502	-44.296009	8315.143555	8009.324707
505.436127	-64.167816	8258.110352	7986.462402
505.869629	0.391169	8321.984375	7975.029297
506.303162	-46.779667	8159.954590	7922.425293
506.736603	-2.090599	8303.738281	7878.954102
507.169983	-49.263294	8458.759766	7867.511719
507.603363	32.644146	8233.006836	8004.752930
508.036621	-44.296009	8347.071289	8002.466797
508.469940	-24.430815	8303.738281	7922.425293
508.903107	-36.845806	8303.738281	8032.184570
509.336304	-116.363899	8333.388672	7940.725098
509.769379	22.721992	8198.768555	7970.456543
510.202484	-2.090599	8301.458008	7904.124023
510.635529	-16.983133	8239.853516	7613.238770
511.068481	22.721992	8392.669922	8160.121582
511.501434	40.084641	8333.388672	8255.994141
511.934265	-4.572337	8365.313477	8082.459961
512.367126	-26.913630	8319.704102	8064.180664
512.799927	-21.948105	8006.872559	7727.837402
513.232605	-9.536396	8016.017090	7771.358398
513.665344	15.279321	8068.583984	7922.425293
514.097961	-46.779667	8219.312500	8018.469238
514.530579	-59.199261	8189.637207	7567.371582
514.963135	-84.046539	7984.009766	7830.890625
515.395691	-71.621643	8189.637207	7874.377930
515.828064	-44.296009	8331.107422	7869.800781
516.260498	-91.502777	8276.362305	8002.466797
516.692871	2.872833	8134.834473	7860.646973
517.125183	-9.536396	8180.504883	7649.921875
517.557373	-16.983133	8360.751953	7872.089844
517.989624	12.798177	8048.016602	7720.964844
518.421753	22.721992	7997.728027	7791.968750
518.853943	-84.046539	7977.149902	7846.913574
519.286072	2.872833	8109.708984	7737.000977
519.718018	25.202721	8180.504883	7883.531250
520.150024	-59.199261	8148.537109	7840.046875
520.581909	-64.167816	8050.302246	7773.648438
521.013855	5.354258	8105.139648	7904.124023
521.445679	0.391169	8059.443359	7711.799805
521.877502	-24.430815	7970.290039	7718.672852
522.309204	-7.054314	7986.296387	7668.259277
522.740906	-12.018582	7968.002441	7835.468262
523.172546	-84.046539	7995.441895	7787.389160
523.604187	-7.054314	7974.863281	7743.874023
524.035767	-14.500738	7924.546387	7807.997070
524.467224	20.241297	7915.395508	7544.431641
524.898682	-79.076286	7906.245117	7665.966309
525.330078	-64.167816	7929.122070	7746.164063
525.761475	-2.090599	7805.540527	7741.582031
526.192749	0.391169	7865.057617	7764.488281
526.624023	-9.536396	7935.983398	7812.575684
527.055237	-19.465635	7812.409668	7542.137695
527.486389	-36.845806	8011.444824	7443.449219
527.917542	-71.621643	7963.429199	7571.959473
528.348572	-44.296009	7782.642578	7640.751953
528.779663	-39.329010	7942.845703	7544.431641
529.210571	-16.983133	7796.381348	7711.799805
529.641541	-21.948105	7869.633789	7640.751953
530.072388	-29.396549	8022.874512	7748.454102
530.503235	-16.983133	7940.558594	7560.490234
530.934082	-46.779667	7919.971680	7473.292480
531.364746	-74.106323	7869.633789	7592.601074
531.795532	-21.948105	7858.190918	7594.894043
532.226135	-34.362572	7885.653320	7498.540527
532.656738	-12.018582	7869.633789	7549.020020
533.087280	-98.959984	7917.684082	7576.546387
533.517822	-46.779667	7949.707520	7686.593262
533.948242	-84.046539	7910.820313	7643.043945
534.378662	-121.337494	7851.324707	7608.652832
534.809082	-24.430815	7897.093262	7675.134277
535.239319	-19.465635	7828.434082	7443.449219
535.669617	50.003899	7803.250977	7624.704102
536.099792	52.483486	7876.499512	7610.946289
536.529968	-74.106323	7931.409180	7622.410156
536.960083	-26.913630	7995.441895	7714.090820
537.390137	-19.465635	8093.717285	7929.288086
537.820190	0.391169	8027.446289	7610.946289
538.250183	-103.932076	8203.333984	7789.679199
538.680115	-16.983133	7981.723633	7835.468262
539.109985	-9.536396	7990.869629	7766.778320
539.539795	-2.090599	8337.949219	7539.843750
539.969543	0.391169	8347.071289	7872.089844
540.399292	-31.879438	8248.982422	7730.127930
540.828979	40.084641	8246.699219	7798.838379
541.258606	-89.017349	8634.085938	7906.411621
541.688171	17.760361	8363.032227	8059.609375
542.117737	-41.812458	8445.088867	8285.654297
542.547302	15.279321	8661.387695	8029.897949
542.976685	-51.747162	8490.654297	8294.779297
543.406128	-4.572337	8865.989258	8506.764648
543.835388	-54.231133	8925.038086	8593.286133
544.264771	-39.329010	8929.580078	8536.370117
544.693970	-14.500738	9199.518555	9129.414063
545.123230	2.872833	12385.914063	13853.255859
545.552307	-98.959984	33687.968750	30053.396484
545.981506	-39.329010	55170.964844	43683.906250
546.410583	-39.329010	63263.644531	50262.746094
546.839539	-49.263294	48468.976563	42360.527344
547.268555	-111.390869	32406.714844	30781.166016
547.697449	74.794762	25681.720703	26537.763672
548.126282	-34.362572	21457.642578	25429.392578
548.555054	-93.988449	17538.390625	23588.818359
548.983887	-74.106323	14322.453125	19064.488281
549.412598	-12.018582	11803.092773	14626.264648
549.841309	15.279321	10179.681641	11319.058594
550.269958	-9.536396	9392.012695	9904.984375
550.698486	0.391169	8986.333008	9095.399414
551.127075	-49.263294	9185.920898	9278.978516
551.555481	10.317065	9156.454102	9136.214844
551.983948	15.279321	9346.744141	8841.163086
552.412292	-24.430815	9115.643555	8770.711914
552.840698	-61.683556	9149.652344	8991.038086
553.268860	15.279321	9102.038086	8961.530273
553.697205	-54.231133	9394.276367	8809.350586
554.125366	-136.260574	9392.012695	9022.807617
554.553467	-7.054314	9459.890625	8966.069336
554.981628	-16.983133	9405.590820	8986.498047
555.409607	25.202721	9523.212891	9047.765625
555.837646	-126.311371	9378.434570	9174.752930
556.265564	-12.018582	9661.070313	9120.343750
556.693481	-74.106323	9694.948242	9299.361328
557.121338	5.354258	9866.478516	9020.539063
557.549133	-44.296009	9877.756836	9351.436523
557.976929	-39.329010	9920.604492	9288.036133
558.404602	-26.913630	9852.945313	9453.268555
558.832275	-9.536396	10055.832031	9584.412109
559.259888	-12.018582	10148.166016	9609.270508
559.687439	-49.263294	10166.174805	9812.497070
560.114929	30.163729	9940.896484	9767.360352
560.542419	-29.396549	10472.009766	9796.701172
560.969788	-44.296009	10334.911133	9844.084961
561.397156	40.084641	10741.356445	9925.278320
561.824524	-56.715080	10352.898438	10001.919922
562.251770	-46.779667	10640.407227	9814.753906
562.679016	-44.296009	10321.418945	10031.212891
563.106140	20.241297	10507.951172	10042.478516
563.533264	-14.500738	10330.414063	10101.043945
563.960327	-56.715080	10463.024414	9909.494141
564.387329	-89.017349	10397.856445	9970.366211
564.814331	-89.017349	10480.996094	9674.786133
565.241272	-46.779667	10487.735352	10137.073242
565.668213	32.644146	10357.395508	10114.555664
566.094971	-26.913630	10427.073242	9990.651367
566.521790	-36.845806	10242.692383	10125.814453
566.948425	-19.465635	10163.923828	9798.958008
567.375183	27.683344	10247.192383	9983.889648
567.801819	87.186409	10483.242188	9830.547852
568.228394	30.163729	10170.677734	10150.581055
568.654846	12.798177	10503.458008	9823.779297
569.081421	7.835713	10427.073242	10128.066406
569.507874	-4.572337	10130.153320	9835.060547
569.934265	-54.231133	10202.188477	9661.234375
570.360596	-39.329010	10139.160156	9728.983398
570.786865	-133.773087	10152.667969	9848.595703
571.213074	-49.263294	10181.932617	9631.866211
571.639282	-61.683556	10208.939453	9871.155273
572.065430	-71.621643	10197.686523	9830.547852
572.491516	-21.948105	10370.883789	9893.708008
572.917603	-49.263294	10368.635742	9719.951172
573.343567	-14.500738	10226.942383	9744.787109
573.769531	30.163729	10069.347656	9616.048828
574.195435	-74.106323	10114.391602	9695.112305
574.621277	-126.311371	10184.182617	9566.331055
575.047119	-61.683556	10058.083984	9803.470703
575.472839	-64.167816	9884.523438	9722.209961
575.898560	-54.231133	10118.895508	9880.175781
576.324158	-76.591255	12116.982422	11470.938477
576.749817	-76.591255	15096.376953	13478.006836
577.175293	-39.329010	16952.283203	14769.179688
577.600830	-16.983133	15813.748047	14186.081055
578.026306	-26.913630	13738.376953	12659.059570
578.451721	-34.362572	14113.219727	13650.254883
578.877136	32.644146	16019.735352	15111.908203
579.302429	-79.076286	17171.017578	15844.592773
579.727661	-108.904449	15555.033203	15320.450195
580.152832	-51.747162	13186.046875	13318.891602
580.578064	-71.621643	11787.494141	12110.470703
581.003113	-54.231133	11312.193359	11524.509766
581.428223	-7.054314	10882.578125	11102.166992
581.853271	-64.167816	10496.720703	10849.127930
582.278198	-59.199261	9958.931641	10278.850586
582.703125	-51.747162	9832.640625	9803.470703
583.127930	0.391169	9575.207031	9498.503906
583.552795	-24.430815	9432.744141	9503.027344
583.977539	-76.591255	9303.724609	9161.153320
584.402283	12.798177	9529.996094	9050.034180
584.826965	7.835713	9305.989258	9138.482422
585.251587	7.835713	9462.152344	8993.307617
585.676208	-64.167816	9303.724609	9004.654297
586.100647	-51.747162	9369.380859	8934.286133
586.525208	-16.983133	9358.063477	8863.882813
586.949524	25.202721	9249.366211	8925.203125
587.373962	22.721992	9276.547852	8993.307617
587.798218	-16.983133	9317.311523	9040.958984
588.222534	-34.362572	9033.987305	9018.269531
588.646729	-69.136925	8911.414063	8747.977539
589.070984	-34.362572	8847.814453	8511.319336
589.495117	-81.561295	8668.213867	8684.302734
589.919128	2.872833	8856.901367	8734.334961
590.343201	-66.652321	8972.714844	8622.873047
590.767151	-111.390869	8738.717773	8470.318359
591.191101	-19.465635	8538.481445	8495.375977
591.614990	-61.683556	8650.012695	8543.200195
592.038818	-84.046539	8595.396484	8433.861328
592.462524	-44.296009	8588.568359	8283.373047
592.886292	-51.747162	8451.924805	8379.157227
593.310059	-2.090599	8506.598633	8226.326172
593.733582	-9.536396	8308.299805	7988.749512
594.157227	-24.430815	8381.271484	8048.183105
594.580750	-61.683556	8233.006836	8130.432617
595.004272	-21.948105	8394.949219	7910.986816
595.427673	-84.046539	8280.925781	7961.309082
595.851074	-64.167816	8109.708984	7892.684082
596.274353	-111.390869	7874.211426	8002.466797
596.697632	-98.959984	8093.717285	7661.382813
597.120911	25.202721	7878.788086	7654.505859
597.544067	-64.167816	7835.302246	7668.259277
597.967224	-16.983133	7814.698730	7519.193848
598.390320	20.241297	7711.632324	7551.314453
598.813354	-69.136925	7631.415039	7560.490234
599.236328	-49.263294	7502.962891	7436.560547
599.659241	-46.779667	7642.877441	7317.109375
600.082153	-24.430815	7560.322754	7225.147949
600.505005	-81.561295	7443.281250	7232.047363
600.927795	-91.502777	7316.942383	6994.957031
601.350525	-46.779667	7537.381836	7091.687500
601.773254	-81.561295	7183.576660	6888.929199
602.195862	-74.106323	7277.866211	6981.132324
602.618408	-4.572337	6944.091309	6778.197754
603.040955	-12.018582	7024.737793	6990.349121
603.463440	-29.396549	7010.915527	6808.197754
603.885925	-74.106323	6794.184082	6699.704102
604.308350	35.124458	6900.290527	6600.362793
604.730652	-12.018582	6734.171387	6542.569824
605.152893	-41.812458	6757.257324	6526.383301
605.575195	-101.445969	6701.845703	6551.818848
605.997375	-39.329010	6590.949707	6413.017090
606.419495	-69.136925	6454.505859	6524.070801
606.841553	-54.231133	6375.809082	6544.882324
607.263672	-26.913630	6438.307617	6114.068848
607.685608	-46.779667	6498.461426	6325.029785
608.107605	-66.652321	6315.595703	6174.379883
608.529480	-91.502777	6334.125977	6160.464844
608.951294	-71.621643	6153.337891	6076.939453
609.373108	-4.572337	6329.494141	6060.691406
609.794800	-93.988449	6269.257813	6058.370605
610.216553	-2.090599	6262.305664	5849.275879
610.638123	-36.845806	6157.976563	5937.604004
611.059753	-113.877396	6160.295898	5946.897949
611.481262	-36.845806	6141.739746	6009.613770
611.902832	10.317065	6348.021973	5784.150879
612.324219	-12.018582	5932.787598	5860.901855
612.745605	-113.877396	6093.016113	5930.632813
613.166931	-46.779667	5897.927734	5712.007324
613.588196	-16.983133	5783.981934	5574.583008
614.009460	-59.199261	5858.407715	5546.612793
614.430664	-126.311371	5581.404785	5670.098145
614.851807	-66.652321	5695.541992	5437.000977
615.272827	-44.296009	5527.792969	5462.663574
615.693909	-51.747162	5630.333984	5303.931152
616.114929	-4.572337	5558.098145	5516.304199
616.535889	-29.396549	5287.408691	5259.541016
616.956787	-54.231133	5224.314941	5201.107910
617.377563	-19.465635	5278.063477	5229.159668
617.798340	-66.652321	5189.247559	5020.950684
618.219055	-66.652321	5154.170410	4967.083008
618.639832	-128.798553	5083.983887	4941.311523
619.060364	-66.652321	4936.454590	4831.131836
619.481018	-44.296009	4920.051270	4833.478027
619.901611	-39.329010	4882.548340	4713.803711
620.322083	-14.500738	4948.170410	4695.019531
620.742493	-14.500738	4692.500977	4617.503906
621.162842	-34.362572	4683.107910	4532.880859
621.583191	-21.948105	4654.923340	4417.596191
622.003418	-16.983133	4605.583496	4499.954102
622.423706	-93.988449	4485.668945	4438.779785
622.843872	-51.747162	4440.962402	4431.719238
623.264038	-64.167816	4403.300293	4266.840820
623.684143	-24.430815	4290.238281	4255.054199
624.104126	-71.621643	4153.466797	4045.042725
624.524170	7.835713	4167.623535	4092.271484
624.944031	-56.715080	4144.027832	3889.040039
625.364014	-14.500738	4007.072510	3874.846924
625.783752	-21.948105	3957.442627	3848.820801
626.203552	-2.090599	3900.694336	3825.155273
626.623230	-69.136925	3824.982910	3680.680420
627.042969	-86.531891	3701.836426	3652.235596
627.462585	-84.046539	3583.289551	3628.525635
627.882141	-31.879438	3637.837891	3578.717285
628.301697	-54.231133	3561.936768	3429.147217
628.721130	-103.932076	3550.072021	3412.514893
629.140625	-34.362572	3571.427490	3374.488281
629.559998	-59.199261	3336.273438	3426.771484
629.979309	-79.076286	3426.599121	3341.202881
630.398560	5.354258	3419.470703	3155.552490
630.817810	-16.983133	3310.112061	3212.712891
631.237000	2.872833	3276.805420	3153.170410
631.656067	-36.845806	3279.184570	3246.041016
632.075195	7.835713	3112.487549	2981.486816
632.494202	-7.054314	3067.192871	2995.805664
632.913208	-96.474228	3064.808594	3072.135010
633.332092	-14.500738	3026.648193	2835.794189
633.750977	-2.090599	2895.357178	2964.779297
634.169739	-36.845806	2821.277832	2768.844238
634.588562	-54.231133	2847.570801	2752.099365
635.007263	47.524204	2847.570801	2699.453369
635.425964	-59.199261	2821.277832	2692.271729
635.844543	-128.798553	2704.066162	2689.877930
636.263123	-91.502777	2742.355713	2670.724854
636.681641	-49.263294	2677.733154	2656.356934
637.100037	-19.465635	2689.704102	2548.528320
637.518494	-2.090599	2591.500488	2603.656738
637.936829	-49.263294	2596.293457	2466.973145
638.355164	-84.046539	2315.487061	2322.873535
638.773438	-4.572337	2485.994629	2514.955811
639.191650	7.835713	2514.781006	2349.309326
639.609863	-128.798553	2493.192383	2370.932373
640.027893	-64.167816	2248.154785	2320.469482
640.445984	-19.465635	2387.572266	2363.725098
640.863953	-21.948105	2339.521973	2190.575439
641.281921	-19.465635	2303.467529	2190.575439
641.699829	-49.263294	2248.154785	2192.982666
642.117676	-56.715080	2289.041260	2195.389893
642.535461	-101.445969	2224.094971	2048.431885
642.953247	-34.362572	2159.100586	2137.600342
643.370972	-84.046539	2187.993164	2209.831299
643.788635	2.872833	2156.692383	2014.668213
644.206177	-64.167816	2130.198486	2077.361572
644.623718	-26.913630	2024.140747	2077.361572
645.041260	-14.500738	1975.889038	1884.310181
645.458618	-61.683556	2019.317017	1983.304199
645.876099	-9.536396	1932.438843	1867.397095
646.293396	-34.362572	1942.096313	1872.229736
646.710693	-39.329010	1939.682251	1864.980469
647.127991	32.644146	1804.370361	1852.897339
647.545166	-98.959984	1857.555054	1814.218750
647.962341	-24.430815	1830.966797	1741.647339
648.379333	-44.296009	1809.206665	1799.709717
648.796448	-19.465635	1898.628540	1649.630371
649.213379	-66.652321	1787.440796	1635.091797
649.630310	-31.879438	1780.184082	1608.430542
650.047180	-16.983133	1772.927002	1664.166382
650.463989	-51.747162	1777.765015	1635.091797
650.880859	-26.913630	1642.184937	1671.433472
651.297546	-51.747162	1688.211060	1632.668335
651.714233	-31.879438	1596.132446	1508.978149
652.130859	-12.018582	1683.367432	1576.910400
652.547485	-29.396549	1516.083008	1550.229980
652.963928	-2.090599	1477.241455	1538.099365
653.380432	-108.904449	1460.242310	1453.132690
653.796814	-4.572337	1460.242310	1499.268921
654.213196	-74.106323	1520.936768	1385.092163
654.629578	-29.396549	1540.349121	1443.416138
655.045837	-24.430815	1384.915283	1351.049316
655.462036	59.921501	1377.621460	1404.538574
655.878174	-19.465635	1426.232666	1397.246582
656.294312	-54.231133	1414.082886	1355.913452
656.710327	-7.054314	1358.168579	1423.979614
657.126404	2.872833	1416.513062	1355.913452
657.542358	-96.474228	1331.412231	1329.156372
657.958252	2.872833	1333.844971	1302.390015
658.374084	-116.363899	1290.043335	1212.287476
658.789917	-36.845806	1382.484009	1295.088379
659.205688	-31.879438	1350.872192	1258.569702
659.621338	-49.263294	1246.215820	1156.222534
660.037048	-31.879438	1173.113159	1119.635742
660.452637	-76.591255	1143.851563	1161.099487
660.868164	20.241297	1199.925659	1187.916870
661.283691	-24.430815	1109.698486	1202.540161
661.699158	-39.329010	1156.045288	1117.195923
662.114502	54.962975	1153.606689	1139.150879
662.529846	-51.747162	1085.293701	1007.320557
662.945129	-36.845806	1107.258301	1080.589355
663.360413	-66.652321	1016.916382	1053.732910
663.775635	52.483486	1021.802673	958.433167
664.190674	-39.329010	965.590637	1092.793579
664.605835	-74.106323	1024.245483	1007.320557
665.020813	-29.396549	1053.555176	955.987854
665.435791	-49.263294	943.582397	926.638306
665.850769	47.524204	901.993042	933.976929
666.265625	-51.747162	963.145569	995.101929
666.680420	-71.621643	958.255188	904.617920
667.095215	15.279321	894.651001	902.171082
667.509949	-69.136925	816.289551	887.486328
667.924622	-76.591255	955.810181	931.530823
668.339233	10.317065	789.332153	848.312805
668.753784	-51.747162	806.487976	892.381592
669.168335	-86.531891	853.032532	853.210510
669.582825	2.872833	857.929993	919.299133
669.997192	-12.018582	843.236206	804.215698
670.411560	-29.396549	884.860718	811.567261
670.825867	-41.812458	801.586914	772.350464
671.240173	-19.465635	848.134521	801.765320
671.654358	-56.715080	840.786865	715.937256
672.068481	-64.167816	732.932983	747.828796
672.482605	-19.465635	740.291870	782.156860
672.896667	-34.362572	669.120850	757.638428
673.310669	-81.561295	683.852051	711.029419
673.724609	-59.199261	750.102905	671.754761
674.138489	-26.913630	755.007629	647.196594
674.552307	-81.561295	671.576050	760.090698
674.966064	-54.231133	664.209595	698.758606
675.379822	0.391169	710.850830	657.020874
675.793579	-51.747162	656.842163	637.370667
676.207153	-51.747162	637.191833	637.370667
676.620789	-31.879438	698.580017	639.827271
677.034241	40.084641	556.073181	593.136597
677.447754	32.644146	627.364685	617.714600
677.861206	-4.572337	674.031433	598.052979
678.274597	-59.199261	597.874146	575.926453
678.687866	-21.948105	553.613464	615.257385
679.101135	-21.948105	634.735352	575.926453
679.514404	-19.465635	588.040894	553.792480
679.927551	-7.054314	588.040894	578.385376
680.340698	-93.988449	588.040894	568.549194
680.753723	-66.652321	575.747498	625.086365
681.166748	-2.090599	489.628998	566.090149
681.579712	-56.715080	531.472229	492.270325
681.992615	-106.418274	521.629089	539.032410
682.405457	2.872833	492.091125	566.090149
682.818298	-39.329010	474.854431	563.630859
683.231018	-71.621643	526.550842	482.421173
683.643738	-108.904449	474.854431	487.345917
684.056335	-26.913630	420.652008	509.502380
684.468994	-56.715080	521.629089	494.732330
684.881531	-41.812458	462.539764	445.474518
685.293945	-113.877396	509.323242	543.952881
685.706482	-29.396549	543.773865	462.719055
686.118774	-34.362572	484.704437	521.808167
686.531128	-103.932076	531.472229	410.971619
686.943481	27.683344	462.539764	531.651306
687.355713	-39.329010	536.393005	514.425049
687.767883	20.241297	442.831299	435.618286
688.179932	-26.913630	420.652008	440.546600
688.592041	-26.913630	455.149719	361.649475
689.004089	-34.362572	457.613159	386.315186
689.416016	-46.779667	492.091125	396.179016
689.827881	-89.017349	469.928772	484.883636
690.239868	-118.850647	504.400177	438.082489
690.651611	-91.502777	504.400177	571.008362
691.063354	-106.418274	615.078613	521.808167
691.475098	2.872833	492.091125	423.296143
691.886719	-21.948105	452.686157	378.916595
692.298340	-9.536396	479.779755	383.848999
692.709900	-31.879438	442.831299	396.179016
693.121460	-34.362572	391.067871	398.644470
693.532837	-34.362572	469.928772	376.450104
693.944214	72.316231	482.242279	383.848999
694.355652	-54.231133	428.046051	383.848999
694.766846	-86.531891	341.730255	462.719055
695.178101	-2.090599	403.396179	346.845123
695.589294	5.354258	349.133179	391.247314
696.000366	-26.913630	386.135712	322.164063
696.411438	-14.500738	361.469971	280.183563
696.822510	27.683344	366.403717	369.050079
697.233459	-44.296009	317.046906	346.845123
697.644409	-24.430815	378.737091	346.845123
698.055298	-66.652321	326.921509	383.848999
698.466064	-98.959984	319.515686	322.164063
698.876831	-69.136925	312.109283	356.715088
699.287537	-151.187531	351.600769	401.110077
699.698181	-76.591255	346.665833	361.649475
700.108826	-103.932076	361.469971	267.831085
700.519348	-71.621643	272.592682	312.288696
700.929810	-46.779667	267.651276	275.243011
701.340271	5.354258	299.762878	317.226563
701.750732	-2.090599	319.515686	324.632660
702.161011	-74.106323	287.414276	277.713470
702.571350	-34.362572	267.651276	282.653809
702.981567	-49.263294	297.293549	314.757690
703.391724	-16.983133	309.640198	302.412048
703.801880	-91.502777	292.354095	334.505798
704.211914	-118.850647	307.171021	280.183563
704.621948	-29.396549	228.106598	225.814117
705.031921	-9.536396	309.640198	265.360260
705.441895	-12.018582	260.238739	238.175064
705.851746	-138.748169	312.109283	233.230927
706.261536	-113.877396	354.068207	225.814117
706.671265	-86.531891	215.743759	248.061890
707.081055	-39.329010	349.133179	213.450806
707.490662	42.564644	321.984406	317.226563
707.900330	-9.536396	297.293549	270.301849
708.309814	-2.090599	230.578934	270.301849
708.719299	5.354258	314.578003	260.418549
709.128784	-44.296009	329.389923	299.942566
709.538147	-9.536396	250.353577	243.118805
709.947510	-118.850647	200.904892	260.418549
710.356750	-69.136925	188.536591	223.341599
710.766052	-59.199261	272.592682	225.814117
711.175171	-16.983133	173.691254	206.031616
711.584290	-19.465635	183.588455	92.157242
711.993347	-81.561295	284.944214	156.547119
712.402405	40.084641	235.523148	280.183563
712.811401	-103.932076	139.038040	314.757690
713.220276	-36.845806	186.062576	196.137909
713.629150	-44.296009	220.689178	255.476181
714.037964	20.241297	240.467102	225.814117
714.446777	-26.913630	168.741928	253.004852
714.855408	-89.017349	220.689178	277.713470
715.264099	-66.652321	195.957886	136.742203
715.672668	-74.106323	215.743759	220.869110
716.081177	-12.018582	272.592682	218.396408
716.489746	12.798177	240.467102	198.611389
716.898132	-39.329010	166.267120	275.243011
717.306519	27.683344	282.474060	139.218094
717.714844	-26.913630	275.063232	223.341599
718.123108	-89.017349	148.940857	166.447220
718.531372	-91.502777	151.416382	220.869110
718.939514	-84.046539	166.267120	191.190399
719.347595	-2.090599	245.410660	176.345718
719.755676	50.003899	215.743759	116.930702
720.163696	-26.913630	153.891800	196.137909
720.571716	-26.913630	191.010498	181.294296
720.979614	-61.683556	139.038040	156.547119
721.387451	0.391169	153.891800	136.742203
721.795227	0.391169	195.957886	126.837257
722.202942	-96.474228	186.062576	191.190399
722.610718	-79.076286	151.416382	74.809731
723.018311	2.872833	136.562012	141.694016
723.425903	32.644146	210.797821	201.084900
723.833374	12.798177	126.657043	173.871216
724.240906	57.442223	163.792343	129.313690
724.648376	-66.652321	218.216446	131.789871
725.055725	-76.591255	156.367126	168.922028
725.463013	7.835713	181.114380	126.837257
725.870300	-54.231133	228.106598	193.664200
726.277466	-7.054314	168.741928	134.266098
726.684631	-21.948105	161.317322	109.499741
727.091797	-76.591255	139.038040	87.201241
727.498779	-36.845806	72.150810	84.723221
727.905823	-89.017349	161.317322	104.545174
728.312805	47.524204	171.216644	161.497437
728.719666	-41.812458	129.133469	124.360741
729.126526	-41.812458	163.792343	161.497437
729.533264	-19.465635	168.741928	104.545174
729.940063	-76.591255	111.796616	173.871216
730.346680	-34.362572	111.796616	129.313690
730.753357	-31.879438	119.227287	163.972305
731.159851	-12.018582	161.317322	121.884117
731.566406	30.163729	91.976906	57.457191
731.972900	7.835713	101.887581	107.022507
732.379272	-86.531891	181.114380	154.071930
732.785645	-108.904449	64.714180	223.341599
733.191895	-24.430815	121.704018	124.360741
733.598206	-16.983133	87.021034	129.313690
734.004333	-54.231133	111.796616	168.922028
734.410522	-51.747162	139.038040	50.018867
734.816528	-79.076286	87.021034	62.415512
735.222656	-71.621643	124.180519	99.590332
735.628662	-64.167816	89.498955	109.499741
736.034546	-79.076286	163.792343	104.545174
736.440430	-123.824440	106.842232	67.373558
736.846252	-123.824440	84.542877	92.157242
737.252014	-79.076286	42.399143	109.499741
737.657715	22.721992	91.976906	72.331062
738.063354	-2.090599	139.038040	161.497437
738.468933	0.391169	124.180519	111.976875
738.874512	64.879623	126.657043	47.539177
739.280029	-24.430815	148.940857	94.635086
739.685486	-36.845806	74.629349	131.789871
740.090881	-89.017349	111.796616	72.331062
740.496216	-91.502777	72.150810	124.360741
740.901550	0.391169	91.976906	69.852432
741.306702	-41.812458	87.021034	146.645401
741.711914	7.835713	94.454765	45.059380
742.117004	-91.502777	109.319473	114.453773
742.522095	5.354258	89.498955	92.157242
742.927124	-36.845806	99.410027	126.837257
743.332031	-76.591255	119.227287	67.373558
743.737000	-2.090599	183.588455	121.884117
744.141785	-24.430815	32.478619	87.201241
744.546631	17.760361	114.273651	126.837257
744.951355	-76.591255	59.756054	168.922028
745.356079	-34.362572	89.498955	82.244965
745.760620	-46.779667	131.609802	92.157242
746.165283	-93.988449	101.887581	146.645401
746.569824	-49.263294	32.478619	104.545174
746.974243	-56.715080	91.976906	119.407524
747.378723	-71.621643	32.478619	104.545174
747.783020	-4.572337	49.838417	104.545174
748.187378	-26.913630	139.038040	22.736969
748.591614	-9.536396	47.358719	89.679291
748.995850	-76.591255	151.416382	69.852432
749.399963	-74.106323	62.235233	178.820129
749.804077	-69.136925	77.107918	35.139431
750.208130	-24.430815	27.517801	17.775339
750.612122	-12.018582	34.958935	141.694016
751.016052	-44.296009	91.976906	32.659122
751.419922	-24.430815	89.498955	84.723221
751.823792	-69.136925	72.150810	22.736969
752.227478	-46.779667	72.150810	119.407524
752.631226	-29.396549	89.498955	134.266098
753.034851	-36.845806	106.842232	69.852432
753.438477	-46.779667	84.542877	45.059380
753.842102	-41.812458	79.586380	97.112686
754.245544	-44.296009	72.150810	87.201241
754.648987	-56.715080	44.879051	146.645401
755.052368	-59.199261	0.225550	77.288284
755.455750	-93.988449	-22.113787	-16.968147
755.859009	-59.199261	32.478619	82.244965
756.262268	52.483486	39.919132	109.499741
756.665405	54.962975	25.037170	74.809731
757.068542	-131.285828	34.958935	69.852432
757.471680	-81.561295	49.838417	57.457191
757.874634	25.202721	77.107918	37.619507
758.277588	27.683344	191.010498	89.679291
758.680420	-26.913630	245.410660	173.871216
759.083374	-4.572337	218.216446	159.022324
759.486084	-7.054314	445.295227	134.266098
759.888916	-71.621643	619.993103	290.063965
760.291504	-16.983133	732.932983	314.757690
760.694214	-76.591255	494.553162	410.971619
761.096802	-46.779667	359.002808	324.632660
761.499268	-24.430815	280.004059	183.768509
761.901733	45.044540	141.513840	168.922028
762.304199	-34.362572	143.989655	228.286530
762.706543	-26.913630	109.319473	230.758850
763.108826	27.683344	121.704018	114.453773
763.511108	-9.536396	129.133469	72.331062
763.913208	-96.474228	47.358719	77.288284
764.315369	-56.715080	22.556437	47.539177
764.717529	-26.913630	59.756054	-26.898640
765.119568	-84.046539	29.998192	54.977806
765.521545	-49.263294	69.672035	32.659122
765.923462	-74.106323	91.976906	12.813156
766.325317	2.872833	64.714180	62.415512
766.727112	-34.362572	62.235233	69.852432
767.128845	-19.465635	37.439156	-21.933252
767.530518	-29.396549	143.989655	82.244965
767.932251	-41.812458	114.273651	32.659122
768.333862	-51.747162	77.107918	47.539177
768.735413	47.524204	136.562012	-19.450647
769.136841	-79.076286	166.267120	40.099613
769.538269	-34.362572	168.741928	57.457191
769.939636	22.721992	99.410027	116.930702
770.341003	35.124458	74.629349	111.976875
770.742249	12.798177	20.075733	69.852432
771.143433	-7.054314	82.064613	7.850694
771.544617	-9.536396	0.225550	37.619507
771.945740	-21.948105	20.075733	69.852432
772.346802	-98.959984	25.037170	119.407524
772.747803	-39.329010	-17.148802	59.936474
773.148682	-39.329010	49.838417	74.809731
773.549622	-7.054314	-14.666399	17.775339
773.950439	-49.263294	-34.528286	59.936474
774.351196	-66.652321	77.107918	47.539177
774.751892	-9.536396	59.756054	15.294299
775.152588	40.084641	29.998192	7.850694
775.553162	-9.536396	-27.079325	2.887680
775.953735	-14.500738	121.704018	54.977806
776.354309	-59.199261	57.276764	-21.933252
776.754639	-19.465635	20.075733	12.813156
777.155090	-51.747162	-49.429050	64.894592
777.555420	-143.723557	49.838417	20.256138
777.955750	-16.983133	22.556437	20.256138
778.355896	-36.845806	52.318012	-26.898640
778.756104	-98.959984	-27.079325	69.852432
779.156189	-51.747162	72.150810	-14.485888
779.556274	-2.090599	20.075733	25.217697
779.956299	-39.329010	62.235233	57.457191
780.356201	-19.465635	69.672035	17.775339
780.756165	-69.136925	-22.113787	62.415512
781.156006	12.798177	-4.737970	5.369239
781.555786	-51.747162	10.151474	-9.521411
781.955505	-29.396549	109.319473	-21.933252
782.355225	32.644146	2.707221	27.698185
782.754761	-31.879438	7.670116	32.659122
783.154358	-54.231133	5.188653	92.157242
783.553894	-61.683556	7.670116	2.887680
783.953369	-71.621643	-24.596504	-4.557488
784.352783	-7.054314	37.439156	-79.061287
784.752075	-69.136925	32.478619	97.112686
785.151367	22.721992	25.037170	54.977806
785.550598	-4.572337	27.517801	32.659122
785.949768	-21.948105	44.879051	64.894592
786.348877	-19.465635	39.919132	27.698185
786.747986	-19.465635	42.399143	-14.485888
787.147034	-76.591255	32.478619	-24.415827
787.545959	15.279321	-2.256225	52.498455
787.944885	32.644146	-49.429050	-7.039330
788.343750	-61.683556	7.670116	42.579617
788.742493	35.124458	-32.045151	-36.830814
789.141235	-14.500738	-19.631310	-12.003596
789.539917	-91.502777	-76.757088	47.539177
789.938538	-7.054314	-12.184236	35.139431
790.337158	-2.090599	7.670116	37.619507
790.735718	-7.054314	96.932518	42.579617
791.134094	-121.337494	-24.596504	22.736969
791.532532	-36.845806	44.879051	57.457191
791.930847	-59.199261	-27.079325	27.698185
792.329224	-76.591255	10.151474	2.887680
792.727417	-4.572337	5.188653	27.698185
793.125610	-14.500738	-74.272156	20.256138
793.523682	35.124458	-37.011532	2.887680
793.921753	2.872833	-4.737970	12.813156
794.319824	-71.621643	-2.256225	12.813156
794.717773	-16.983133	-14.666399	52.498455
795.115723	-51.747162	-54.396908	22.736969
795.513550	10.317065	-22.113787	32.659122
795.911377	-26.913630	2.707221	-46.764671
796.309082	50.003899	54.797504	-24.415827
796.706787	20.241297	-51.912930	-39.314152
797.104370	-56.715080	25.037170	50.018867
797.501953	-31.879438	15.113743	10.331910
797.899536	-69.136925	-56.880859	-29.381559
798.296936	-79.076286	-49.429050	47.539177
798.694397	-93.988449	17.594790	54.977806
799.091736	52.483486	12.632593	2.887680
799.489014	-31.879438	-89.183220	-59.184269
799.886230	-36.845806	15.113743	10.331910
800.283447	7.835713	32.478619	25.217697
800.680542	-34.362572	67.193161	42.579617
801.077637	-39.329010	-29.562252	-21.933252
801.474670	-14.500738	-24.596504	89.679291
801.871643	-34.362572	-19.631310	-29.381559
802.268555	-69.136925	-37.011532	37.619507
802.665405	-86.531891	-101.611877	62.415512
803.062256	-26.913630	-24.596504	37.619507
803.458923	-34.362572	101.887581	47.539177
803.855652	-81.561295	-29.562252	64.894592
804.252258	-31.879438	82.064613	37.619507
804.648804	2.872833	-46.945415	-2.075616
805.045410	-36.845806	-22.113787	42.579617
805.441833	-61.683556	12.632593	-24.415827
805.838257	-61.683556	89.498955	-2.075616
806.234619	-31.879438	84.542877	-59.184269
806.630859	-71.621643	91.976906	10.331910
807.027100	-76.591255	10.151474	-51.732166
807.423279	-44.296009	7.670116	20.256138
807.819458	20.241297	44.879051	-41.797462
808.215515	-49.263294	-14.666399	-29.381559
808.611572	-108.904449	82.064613	50.018867
809.007507	-21.948105	64.714180	-2.075616
809.403381	-34.362572	-56.880859	-2.075616
809.799194	-98.959984	119.227287	89.679291
810.195068	-34.362572	181.114380	94.635086
810.590759	-44.296009	504.400177	191.190399
810.986450	-12.018582	767.268555	235.703049
811.382080	-36.845806	848.134521	346.845123
811.777649	-49.263294	580.665222	336.973938
812.173157	50.003899	435.438965	228.286530
812.568665	20.241297	277.533691	238.175064
812.964050	12.798177	158.842209	215.923584
813.359375	-9.536396	141.513840	144.169815
813.754639	-49.263294	32.478619	146.645401
814.149841	2.872833	74.629349	121.884117
814.545105	32.644146	62.235233	87.201241
814.940186	7.835713	25.037170	47.539177
815.335266	-106.418274	-2.256225	30.178703
815.730347	-54.231133	-19.631310	-21.933252
816.125244	-69.136925	64.714180	12.813156
816.520203	-29.396549	-39.494743	84.723221
816.914978	-116.363899	-4.737970	25.217697
817.309753	-16.983133	-69.302742	-36.830814
817.704468	-16.983133	0.225550	-12.003596
818.099182	-4.572337	0.225550	-12.003596
818.493774	-41.812458	79.586380	50.018867
818.888367	7.835713	109.319473	22.736969
819.282898	-69.136925	101.887581	-12.003596
819.677307	12.798177	64.714180	74.809731
820.071716	-93.988449	-69.302742	45.059380
820.466003	-39.329010	-4.737970	25.217697
820.860291	-106.418274	15.113743	-2.075616
821.254517	59.921501	-14.666399	-59.184269
821.648743	-19.465635	0.225550	40.099613
822.042786	-51.747162	27.517801	5.369239
822.436890	47.524204	29.998192	27.698185
822.830872	-54.231133	12.632593	5.369239
823.224792	22.721992	49.838417	25.217697
823.618774	-44.296009	47.358719	-12.003596
824.012512	-69.136925	47.358719	10.331910
824.406311	-64.167816	57.276764	37.619507
824.799988	-111.390869	20.075733	-51.732166
825.193665	-84.046539	-44.461754	62.415512
825.587280	-76.591255	17.594790	27.698185
825.980835	-39.329010	99.410027	79.766609
826.374329	12.798177	79.586380	0.406152
826.767761	-91.502777	69.672035	57.457191
827.161194	-59.199261	77.107918	10.331910
827.554443	-79.076286	104.365021	94.635086
827.947754	-46.779667	25.037170	20.256138
828.340942	-19.465635	-81.727142	15.294299
828.734131	-66.652321	39.919132	32.659122
829.127136	17.760361	141.513840	27.698185
829.520264	-9.536396	134.085892	77.288284
829.913208	-36.845806	210.797821	2.887680
830.306152	-31.879438	136.562012	45.059380
830.699097	-34.362572	27.517801	134.266098
831.091797	30.163729	49.838417	37.619507
831.484619	-56.715080	29.998192	27.698185
831.877319	-84.046539	-37.011532	52.498455
832.270020	-93.988449	52.318012	42.579617
832.662537	-19.465635	-37.011532	27.698185
833.055054	40.084641	-19.631310	54.977806
833.447510	-21.948105	-29.562252	-9.521411
833.839966	30.163729	37.439156	-46.764671
834.232361	-91.502777	-12.184236	35.139431
834.624634	-44.296009	-19.631310	10.331910
835.016907	-19.465635	-41.978195	15.294299
835.409058	-51.747162	-41.978195	17.775339
835.801208	-26.913630	-27.079325	-64.152954
836.193298	2.872833	-61.849350	-2.075616
836.585327	-24.430815	-12.184236	-54.216141
836.977295	-59.199261	-22.113787	-64.152954
837.369202	-44.296009	25.037170	-51.732166
837.761047	-116.363899	-94.154343	2.887680
838.152832	-74.106323	-14.666399	-9.521411
838.544617	-49.263294	52.318012	-4.557488
838.936218	-111.390869	-24.596504	-9.521411
839.327942	-41.812458	44.879051	-61.668556
839.719421	-76.591255	0.225550	-31.864586
840.111023	-103.932076	22.556437	-56.700218
840.502380	-31.879438	62.235233	-2.075616
840.893860	-61.683556	-41.978195	-56.700218
841.285217	-16.983133	-12.184236	-9.521411
841.676453	-54.231133	-12.184236	-24.415827
842.067749	-71.621643	-64.333618	-49.248432
842.458862	-7.054314	-37.011532	-14.485888
842.849976	-64.167816	-22.113787	-9.521411
843.241028	-4.572337	-9.702043	-113.862389
843.632019	-2.090599	10.151474	0.406152
844.022949	-7.054314	-29.562252	-29.381559
844.413879	-59.199261	-64.333618	-49.248432
844.804749	15.279321	32.478619	-24.415827
845.195496	-69.136925	49.838417	-29.381559
845.586182	-41.812458	10.151474	-14.485888
845.976807	-29.396549	-46.945415	42.579617
846.367432	-51.747162	-24.596504	-29.381559
846.757996	-44.296009	-39.494743	15.294299
847.148499	-116.363899	-59.365051	-41.797462
847.538879	-41.812458	-17.148802	-34.347580
847.929260	22.721992	-12.184236	82.244965
848.319641	-4.572337	-9.702043	-4.557488
848.709839	-61.683556	-74.272156	-9.521411
849.100098	-4.572337	-79.242134	-14.485888
849.490234	20.241297	2.707221	-86.516884
849.880310	-24.430815	-24.596504	-29.381559
850.270325	-56.715080	-2.256225	-39.314152
850.660339	-26.913630	89.498955	-21.933252
851.050171	22.721992	79.586380	12.813156
851.440125	-84.046539	39.919132	47.539177
851.829895	-59.199261	15.113743	-21.933252
852.219604	-14.500738	-44.461754	-29.381559
852.609314	-7.054314	47.358719	-21.933252
852.998901	-108.904449	25.037170	-86.516884
853.388550	-21.948105	7.670116	35.139431
853.778015	-2.090599	12.632593	-56.700218
854.167480	-21.948105	-17.148802	-91.487907
854.556885	7.835713	-59.365051	0.406152
854.946228	-2.090599	-44.461754	-12.003596
855.335571	-66.652321	15.113743	-26.898640
855.724731	-12.018582	32.478619	-66.637321
856.113953	-39.329010	-24.596504	10.331910
856.503052	50.003899	-49.429050	-89.002342
856.892151	27.683344	-101.611877	-29.381559
857.281067	40.084641	-69.302742	-14.485888
857.670105	64.879623	32.478619	-93.973442
858.058960	-34.362572	5.188653	-91.487907
858.447754	-54.231133	7.670116	-36.830814
858.836609	-59.199261	-17.148802	-24.415827
859.225281	-31.879438	5.188653	-7.039330
859.613892	-56.715080	-27.079325	-24.415827
860.002502	-49.263294	-71.787460	-66.637321
860.391052	-31.879438	-156.330200	-12.003596
860.779541	-143.723557	-9.702043	-76.576256
861.167969	50.003899	5.188653	-64.152954
861.556335	-39.329010	-106.584198	42.579617
861.944702	-49.263294	-17.148802	17.775339
862.332947	-108.904449	-29.562252	-9.521411
862.721069	-7.054314	-12.184236	-41.797462
863.109253	-44.296009	-17.148802	-9.521411
863.497314	-4.572337	-4.737970	-21.933252
863.885376	-19.465635	-41.978195	7.850694
864.273315	-4.572337	34.958935	62.415512
864.661255	-61.683556	17.594790	40.099613
865.049072	5.354258	29.998192	10.331910
865.436890	37.604668	-61.849350	27.698185
865.824707	-59.199261	-22.113787	-16.968147
866.212280	22.721992	12.632593	15.294299
866.599915	-24.430815	-64.333618	-14.485888
866.987488	-26.913630	32.478619	0.406152
867.375061	-84.046539	-7.219954	-2.075616
867.762451	-44.296009	-54.396908	-46.764671
868.149841	-81.561295	-27.079325	-118.835632
868.537170	-59.199261	-19.631310	30.178703
868.924438	-31.879438	-44.461754	2.887680
869.311707	-44.296009	-44.461754	-46.764671
869.698853	-41.812458	-104.097984	-24.415827
870.085938	-86.531891	-121.503456	12.813156
870.472961	-24.430815	-41.978195	-26.898640
870.859985	-4.572337	-64.333618	-84.031532
871.246887	-61.683556	-37.011532	-59.184269
871.633789	-51.747162	47.358719	-86.516884
872.020569	-2.090599	-29.562252	-41.797462
872.407349	-34.362572	-14.666399	40.099613
872.794067	-46.779667	-34.528286	-34.347580
873.180725	-36.845806	-29.562252	0.406152
873.567322	-16.983133	32.478619	-44.281013
873.953796	-49.263294	10.151474	-9.521411
874.340332	-66.652321	-44.461754	-49.248432
874.726624	-66.652321	-66.818123	-21.933252
875.113037	-44.296009	-39.494743	-84.031532
875.499329	-91.502777	-22.113787	15.294299
875.885559	-54.231133	-12.184236	-4.557488
876.271729	-61.683556	-44.461754	5.369239
876.657898	-98.959984	-64.333618	-61.668556
877.044006	-86.531891	47.358719	-16.968147
877.429932	-96.474228	121.704018	15.294299
877.815918	-86.531891	148.940857	25.217697
878.201782	-49.263294	89.498955	64.894592
878.587585	-36.845806	64.714180	5.369239
878.973389	-91.502777	-34.528286	102.067871
879.359070	30.163729	-32.045151	67.373558
879.744751	-26.913630	69.672035	2.887680
880.130310	64.879623	44.879051	-36.830814
880.515930	-7.054314	7.670116	12.813156
880.901367	-113.877396	2.707221	20.256138
881.286804	-93.988449	-76.757088	-26.898640
881.672180	-24.430815	37.439156	-46.764671
882.057434	-14.500738	69.672035	5.369239
882.442749	-91.502777	-54.396908	-56.700218
882.827942	-71.621643	67.193161	-31.864586
883.213013	-12.018582	-29.562252	-121.322479
883.598145	-69.136925	-39.494743	-49.248432
883.983154	7.835713	-37.011532	-7.039330
884.368042	-49.263294	-34.528286	-51.732166
884.753052	15.279321	32.478619	-41.797462
885.137817	10.317065	-22.113787	-79.061287
885.522644	-31.879438	-39.494743	-19.450647
885.907349	20.241297	-12.184236	-39.314152
886.292053	-118.850647	-51.912930	-49.248432
886.676636	2.872833	-12.184236	-29.381559
887.061157	-76.591255	-32.045151	37.619507
887.445740	54.962975	0.225550	32.659122
887.830078	10.317065	-49.429050	-19.450647
888.214539	-16.983133	-44.461754	-36.830814
888.598816	15.279321	-56.880859	-2.075616
888.983093	7.835713	-74.272156	-54.216141
889.367249	10.317065	-19.631310	-34.347580
889.751465	-12.018582	-94.154343	30.178703
890.135498	-26.913630	-79.242134	-81.546425
890.519531	-14.500738	-39.494743	-7.039330
890.903503	-21.948105	-66.818123	-21.933252
891.287415	-56.715080	-39.494743	-59.184269
891.671326	-36.845806	-32.045151	-71.606644
892.055054	-34.362572	57.276764	-36.830814
892.438843	-34.362572	106.842232	37.619507
892.822510	-2.090599	139.038040	35.139431
893.206116	-59.199261	104.365021	30.178703
893.589661	-56.715080	-4.737970	-7.039330
893.973206	-89.017349	-74.272156	47.539177
894.356628	27.683344	27.517801	2.887680
894.739990	-51.747162	39.919132	27.698185
895.123352	22.721992	-19.631310	74.809731
895.506592	-76.591255	-56.880859	-46.764671
895.889832	-56.715080	-4.737970	-36.830814
896.272949	-76.591255	-32.045151	-12.003596
896.656067	-143.723557	-27.079325	-16.968147
897.039063	-81.561295	29.998192	22.736969
897.422058	-46.779667	-17.148802	-12.003596
897.804993	-49.263294	-61.849350	40.099613
898.187866	-31.879438	44.879051	-46.764671
898.570618	-16.983133	25.037170	-56.700218
898.953369	-71.621643	-66.818123	37.619507
899.336121	-4.572337	-56.880859	20.256138
899.718689	-2.090599	-4.737970	-4.557488
900.101257	27.683344	12.632593	-2.075616
900.483704	-12.018582	-2.256225	-9.521411
900.866211	-19.465635	-138.914185	-2.075616
901.248596	-41.812458	-32.045151	-101.430962
901.630920	-4.572337	-32.045151	-101.430962
902.013184	-7.054314	-56.880859	-51.732166
902.395386	47.524204	-41.978195	-51.732166
902.777588	22.721992	15.113743	50.018867
903.159668	7.835713	-56.880859	-74.091461
903.541687	-29.396549	-99.125877	-9.521411
903.923645	-101.445969	-74.272156	12.813156
904.305603	-12.018582	-32.045151	-26.898640
904.687500	-61.683556	-71.787460	-14.485888
905.069275	-24.430815	-49.429050	-7.039330
905.451050	-49.263294	-114.043343	-19.450647
905.832642	-64.167816	-39.494743	-46.764671
906.214294	-54.231133	-12.184236	-34.347580
906.595825	-56.715080	-74.272156	-59.184269
906.977417	-44.296009	-81.727142	-41.797462
907.358826	-59.199261	32.478619	-2.075616
907.740234	-19.465635	-14.666399	-24.415827
908.121582	-7.054314	12.632593	-49.248432
908.502869	-39.329010	-7.219954	-16.968147
908.884033	-64.167816	39.919132	-16.968147
909.265198	-29.396549	-61.849350	-49.248432
909.646301	-71.621643	-2.256225	-91.487907
910.027344	-31.879438	-12.184236	-93.973442
910.408325	-7.054314	-34.528286	-14.485888
910.789246	-79.076286	-37.011532	-79.061287
911.170105	-113.877396	-66.818123	-7.039330
911.550903	-56.715080	-61.849350	-91.487907
911.931641	-56.715080	-7.219954	-61.668556
912.312317	-93.988449	22.556437	-24.415827
912.692932	-19.465635	2.707221	-21.933252
913.073547	-39.329010	-61.849350	10.331910
913.453979	-7.054314	-91.668663	-34.347580
913.834473	-79.076286	-22.113787	-29.381559
914.214783	-39.329010	-32.045151	-9.521411
914.595154	-7.054314	-34.528286	2.887680
914.975464	-19.465635	-44.461754	-39.314152
915.355652	-14.500738	-39.494743	22.736969
915.735840	-16.983133	-29.562252	-31.864586
916.115845	-56.715080	-79.242134	-44.281013
916.495972	-39.329010	-4.737970	-24.415827
916.875854	-4.572337	-7.219954	-81.546425
917.255859	-41.812458	-49.429050	-36.830814
917.635620	52.483486	-51.912930	-46.764671
918.015503	-26.913630	7.670116	-14.485888
918.395203	-81.561295	-22.113787	0.406152
918.774902	-31.879438	-27.079325	7.850694
919.154480	-51.747162	-91.668663	-39.314152
919.534058	-24.430815	-86.697754	-9.521411
919.913574	-84.046539	-54.396908	-41.797462
920.292969	-16.983133	-27.079325	-16.968147
920.672363	-29.396549	-54.396908	-31.864586
921.051636	-16.983133	-27.079325	-7.039330
921.430969	-51.747162	-41.978195	-54.216141
921.810181	-76.591255	-44.461754	-71.606644
922.189331	-74.106323	-74.272156	-4.557488
922.568420	-76.591255	0.225550	-9.521411
922.947388	-74.106323	-41.978195	35.139431
923.326416	2.872833	-46.945415	-14.485888
923.705261	-2.090599	-89.183220	35.139431
924.084106	-26.913630	34.958935	-76.576256
924.462891	-24.430815	-66.818123	-12.003596
924.841675	-46.779667	10.151474	-29.381559
925.220337	-49.263294	-19.631310	-21.933252
925.598938	-103.932076	-19.631310	-21.933252
925.977478	-49.263294	-39.494743	-89.002342
926.355957	-12.018582	-2.256225	32.659122
926.734436	-64.167816	-69.302742	-66.637321
927.112732	-64.167816	-66.818123	-111.375862
927.491089	-46.779667	-19.631310	-59.184269
927.869324	25.202721	-56.880859	-31.864586
928.247559	-61.683556	-14.666399	-64.152954
928.625671	-31.879438	-12.184236	0.406152
929.003723	-81.561295	-49.429050	22.736969
929.381775	5.354258	-49.429050	-79.061287
929.759705	15.279321	-69.302742	-59.184269
930.137634	-29.396549	-64.333618	-84.031532
930.515381	-2.090599	-54.396908	-29.381559
930.893250	35.124458	12.632593	45.059380
931.270935	-141.235748	-32.045151	22.736969
931.648560	5.354258	-69.302742	-108.889580
932.026123	-141.235748	-29.562252	-59.184269
932.403687	-151.187531	-91.668663	-19.450647
932.781250	-61.683556	-81.727142	5.369239
933.158630	59.921501	-128.964523	35.139431
933.536011	-46.779667	-56.880859	-7.039330
933.913208	-76.591255	-49.429050	-89.002342
934.290527	-84.046539	-56.880859	17.775339
934.667664	-12.018582	22.556437	-41.797462
935.044800	-9.536396	-54.396908	-69.121925
935.421814	0.391169	-12.184236	-16.968147
935.798889	20.241297	37.439156	12.813156
936.175842	-44.296009	39.919132	15.294299
936.552673	-106.418274	-71.787460	-46.764671
936.929504	-91.502777	-22.113787	-24.415827
937.306274	5.354258	-27.079325	-61.668556
937.683044	-123.824440	-51.912930	-79.061287
938.059570	-64.167816	29.998192	17.775339
938.436218	-19.465635	-51.912930	-133.758194
938.812744	-26.913630	-29.562252	-101.430962
939.189148	15.279321	-46.945415	0.406152
939.565613	-69.136925	20.075733	-69.121925
939.941956	-71.621643	25.037170	-71.606644
940.318237	-61.683556	-54.396908	17.775339
940.694458	-16.983133	-76.757088	-36.830814
941.070557	-93.988449	0.225550	-89.002342
941.446655	-56.715080	-76.757088	-14.485888
941.822693	45.044540	-44.461754	-29.381559
942.198669	-9.536396	-17.148802	-16.968147
942.574646	-29.396549	-59.365051	-71.606644
942.950562	-74.106323	-27.079325	-26.898640
943.326294	-4.572337	-32.045151	-34.347580
943.702026	40.084641	42.399143	-91.487907
944.077698	-61.683556	-114.043343	-113.862389
944.453369	-56.715080	17.594790	-46.764671
944.828918	-19.465635	-79.242134	47.539177
945.204468	-39.329010	-51.912930	-66.637321
945.579834	-81.561295	-91.668663	-39.314152
945.955261	-133.773087	-49.429050	-41.797462
946.330627	-86.531891	-37.011532	0.406152
946.705811	32.644146	-64.333618	-19.450647
947.081055	-93.988449	-34.528286	22.736969
947.456177	-16.983133	-34.528286	-7.039330
947.831238	-91.502777	-29.562252	-9.521411
948.206238	-103.932076	-94.154343	10.331910
948.581238	-71.621643	27.517801	-31.864586
948.956116	-56.715080	-46.945415	-31.864586
949.330933	5.354258	-46.945415	-71.606644
949.705811	-31.879438	-7.219954	40.099613
950.080505	-98.959984	17.594790	-46.764671
950.455139	-39.329010	-22.113787	-103.917061
950.829773	0.391169	-46.945415	-84.031532
951.204346	2.872833	17.594790	5.369239
951.578735	-71.621643	-32.045151	-24.415827
951.953186	17.760361	5.188653	-56.700218
952.327515	-66.652321	-12.184236	-59.184269
952.701843	-51.747162	-2.256225	20.256138
953.076172	-74.106323	-39.494743	-4.557488
953.450195	-98.959984	-86.697754	-2.075616
953.824341	0.391169	25.037170	0.406152
954.198486	-59.199261	-22.113787	-21.933252
954.572449	-39.329010	-17.148802	0.406152
954.946350	-123.824440	-114.043343	-36.830814
955.320251	-19.465635	-19.631310	-66.637321
955.694092	-41.812458	-51.912930	2.887680
956.067871	7.835713	-14.666399	-46.764671
956.441589	-66.652321	20.075733	-49.248432
956.815125	2.872833	-19.631310	-108.889580
957.188721	-79.076286	-22.113787	-69.121925
957.562256	-19.465635	-14.666399	-4.557488
957.935730	-108.904449	-41.978195	-76.576256
958.309021	-19.465635	-99.125877	-61.668556
958.682373	25.202721	-41.978195	-7.039330
959.055664	-21.948105	-24.596504	20.256138
959.428955	-81.561295	-61.849350	5.369239
959.802063	-98.959984	7.670116	-16.968147
960.175110	-108.904449	-37.011532	124.360741
960.548157	-12.018582	-44.461754	-59.184269
960.921143	32.644146	-22.113787	-14.485888
961.294128	-84.046539	-114.043343	-21.933252
961.666809	-36.845806	-46.945415	-4.557488
962.039612	7.835713	-29.562252	-46.764671
962.412415	-46.779667	-41.978195	7.850694
962.785095	-151.187531	10.151474	-12.003596
963.157715	10.317065	-14.666399	-4.557488
963.530151	-36.845806	-19.631310	-111.375862
963.902649	30.163729	-119.016594	-7.039330
964.275146	-7.054314	-46.945415	-26.898640
964.647522	-111.390869	-4.737970	42.579617
965.019714	-31.879438	-17.148802	22.736969
965.392029	-34.362572	-29.562252	-2.075616
965.764160	-59.199261	-131.451813	-16.968147
966.136292	35.124458	-56.880859	-21.933252
966.508423	-51.747162	-104.097984	-39.314152
966.880371	-69.136925	-96.640121	-98.945107
967.252319	17.760361	-14.666399	37.619507
967.624207	-111.390869	-37.011532	-44.281013
967.996094	-79.076286	-9.702043	-46.764671
968.367737	-111.390869	-27.079325	-9.521411
968.739441	-51.747162	2.707221	10.331910
969.111084	-24.430815	29.998192	-9.521411
969.482666	5.354258	-126.477356	-19.450647
969.854248	-54.231133	-4.737970	-49.248432
970.225586	-31.879438	-37.011532	-39.314152
970.596985	-34.362572	-106.584198	10.331910
970.968323	64.879623	10.151474	-21.933252
971.339661	-9.536396	5.188653	-29.381559
971.710754	-26.913630	-22.113787	-96.459221
972.081909	-9.536396	-44.461754	-46.764671
972.453064	15.279321	-51.912930	-96.459221
972.824097	-2.090599	-17.148802	-41.797462
973.194946	-86.531891	-94.154343	-89.002342
973.565918	-44.296009	-41.978195	5.369239
973.936768	-26.913630	-4.737970	-36.830814
974.307556	-39.329010	-2.256225	-41.797462
974.678284	-49.263294	-12.184236	15.294299
975.048828	20.241297	-91.668663	5.369239
975.419495	-103.932076	39.919132	-31.864586
975.790039	-26.913630	39.919132	-14.485888
976.160522	-49.263294	-39.494743	-49.248432
976.530884	-56.715080	-56.880859	-46.764671
976.901245	-64.167816	-34.528286	-56.700218
977.271606	-4.572337	-17.148802	-14.485888
977.641846	-34.362572	-12.184236	-76.576256
978.012024	-12.018582	7.670116	32.659122
978.382019	-96.474228	-59.365051	-14.485888
978.752136	-39.329010	12.632593	-76.576256
979.122131	-54.231133	39.919132	-14.485888
979.492065	15.279321	-99.125877	-54.216141
979.861877	-98.959984	-22.113787	-61.668556
980.231689	-51.747162	-41.978195	-14.485888
980.601440	2.872833	25.037170	-66.637321
980.971191	-64.167816	12.632593	12.813156
981.340820	-2.090599	-101.611877	27.698185
981.710266	-36.845806	0.225550	-7.039330
982.079773	-31.879438	-59.365051	-74.091461
982.449280	-2.090599	-24.596504	-54.216141
982.818604	-71.621643	27.517801	-26.898640
983.187866	-64.167816	-71.787460	-21.933252
983.557129	-31.879438	-84.212395	32.659122
983.926331	12.798177	-123.990417	-36.830814
984.295471	42.564644	-34.528286	-31.864586
984.664612	-39.329010	-22.113787	-79.061287
985.033569	-12.018582	-119.016594	-24.415827
985.402527	-7.054314	-46.945415	25.217697
985.771362	-24.430815	-49.429050	-26.898640
986.140259	-9.536396	-34.528286	-148.684509
986.508911	22.721992	-32.045151	-14.485888
986.877625	-7.054314	-2.256225	-96.459221
987.246277	-26.913630	-49.429050	-116.349022
987.614929	-79.076286	-7.219954	30.178703
987.983459	-64.167816	-143.889587	-14.485888
988.351807	5.354258	-71.787460	-56.700218
988.720215	-12.018582	-69.302742	-36.830814
989.088623	-76.591255	-84.212395	-51.732166
989.456909	-69.136925	-59.365051	-71.606644
989.825012	-51.747162	22.556437	-49.248432
990.193115	-41.812458	-27.079325	10.331910
990.561279	-64.167816	-96.640121	-46.764671
990.929321	-56.715080	-9.702043	-51.732166
991.297302	-98.959984	-27.079325	27.698185
991.665100	-103.932076	22.556437	25.217697
992.033020	2.872833	32.478619	-36.830814
992.400818	-108.904449	42.399143	-51.732166
992.768494	-66.652321	-22.113787	32.659122
993.136047	-41.812458	-17.148802	-71.606644
993.503723	-96.474228	-22.113787	-36.830814
993.871277	-31.879438	12.632593	-128.783539
994.238770	-29.396549	-89.183220	-81.546425
994.606140	-12.018582	-86.697754	-61.668556
994.973450	-9.536396	15.113743	-61.668556
995.340759	12.798177	-14.666399	-66.637321
995.708008	-91.502777	2.707221	-39.314152
996.075195	-54.231133	-14.666399	-101.430962
996.442200	35.124458	-27.079325	-56.700218
996.809265	-44.296009	-89.183220	20.256138
997.176270	-12.018582	-39.494743	-29.381559
997.543152	-16.983133	-79.242134	-29.381559
997.910095	37.604668	-49.429050	-24.415827
998.276733	-96.474228	-41.978195	-66.637321
998.643494	-56.715080	-2.256225	27.698185
999.010193	-9.536396	-84.212395	-46.764671
999.376831	0.391169	-59.365051	-84.031532
999.743286	-14.500738	-46.945415	-2.075616
1000.109802	-24.430815	-14.666399	-41.797462
1000.476257	20.241297	-59.365051	-66.637321
1000.842651	-2.090599	-17.148802	5.369239
1001.208923	7.835713	-89.183220	17.775339
1001.575134	17.760361	-32.045151	2.887680
1001.941284	-66.652321	-143.889587	20.256138
1002.307434	25.202721	-24.596504	-98.945107
1002.673523	-44.296009	2.707221	-14.485888
1003.039429	17.760361	-34.528286	-19.450647
1003.405334	-54.231133	25.037170	-64.152954
1003.771179	-26.913630	5.188653	-16.968147
1004.137024	-111.390869	-84.212395	15.294299
1004.502808	-31.879438	-24.596504	-64.152954
1004.868408	-29.396549	44.879051	0.406152
1005.234009	-46.779667	32.478619	-96.459221
1005.599609	5.354258	-51.912930	-14.485888
1005.965149	-89.017349	7.670116	-26.898640
1006.330444	-2.090599	22.556437	40.099613
1006.695862	-59.199261	-34.528286	-34.347580
1007.061218	-54.231133	-12.184236	-12.003596
1007.426453	10.317065	29.998192	-34.347580
1007.791626	-24.430815	0.225550	-126.296494
1008.156677	-14.500738	12.632593	-76.576256
1008.521729	-41.812458	-22.113787	50.018867
1008.886780	-44.296009	-61.849350	-29.381559
1009.251709	-46.779667	-64.333618	-76.576256
1009.616577	-79.076286	-39.494743	-16.968147
1009.981384	-31.879438	-94.154343	-34.347580
1010.346130	-76.591255	-4.737970	5.369239
1010.710754	-2.090599	-22.113787	-9.521411
1011.075439	10.317065	-59.365051	42.579617
1011.439941	64.879623	-94.154343	-16.968147
1011.804443	5.354258	-91.668663	-14.485888
1012.168884	5.354258	-56.880859	-24.415827
1012.533325	-41.812458	5.188653	-118.835632
1012.897522	-41.812458	-51.912930	-108.889580
1013.261780	5.354258	-4.737970	-51.732166
1013.626038	-41.812458	2.707221	10.331910
1013.990112	-49.263294	15.113743	5.369239
1014.354187	5.354258	5.188653	20.256138
1014.718140	-59.199261	-14.666399	-41.797462
1015.082153	-44.296009	12.632593	-29.381559
1015.446045	30.163729	17.594790	50.018867
1015.809937	-14.500738	-2.256225	-14.485888
1016.173523	27.683344	-79.242134	27.698185
1016.537170	7.835713	-39.494743	-7.039330
1016.900879	-66.652321	-41.978195	-39.314152
1017.264404	-16.983133	-56.880859	15.294299
1017.627991	10.317065	-39.494743	-44.281013
1017.991333	-31.879438	-84.212395	-86.516884
1018.354675	-101.445969	-34.528286	-64.152954
1018.718018	-69.136925	39.919132	-36.830814
1019.081299	-34.362572	34.958935	-86.516884
1019.444397	35.124458	2.707221	57.457191
1019.807495	-46.779667	-74.272156	-46.764671
1020.170593	-19.465635	-17.148802	-71.606644
1020.533691	27.683344	25.037170	-16.968147
1020.896606	-98.959984	-14.666399	10.331910
1021.259460	-86.531891	-116.529854	-31.864586
1021.622253	-133.773087	-39.494743	-16.968147
1021.985046	-64.167816	-66.818123	-126.296494
1022.347778	-56.715080	-66.818123	-21.933252
1022.710327	5.354258	-46.945415	-44.281013
1023.072876	-111.390869	-4.737970	-31.864586
1023.435364	-49.263294	-29.562252	-24.415827
1023.797852	-44.296009	-34.528286	-21.933252
1024.160278	-61.683556	-99.125877	-49.248432
1024.522461	-71.621643	-37.011532	-44.281013
1024.884766	-12.018582	-141.401764	-24.415827
1025.246948	2.872833	-39.494743	-138.733154
1025.609131	-56.715080	-79.242134	-54.216141
1025.971069	-21.948105	-66.818123	-98.945107
1026.333130	-41.812458	7.670116	-2.075616
1026.694946	-9.536396	-9.702043	-14.485888
1027.056885	-21.948105	-64.333618	-69.121925
1027.418823	-19.465635	-39.494743	-108.889580
1027.780396	-66.652321	-34.528286	-49.248432
1028.142090	-54.231133	-106.584198	-49.248432
1028.503784	-19.465635	-89.183220	-89.002342
1028.865479	-12.018582	-99.125877	-2.075616
1029.226807	-133.773087	-56.880859	-69.121925
1029.588135	-84.046539	5.188653	-39.314152
1029.949707	-21.948105	-121.503456	-51.732166
1030.310913	5.354258	0.225550	-16.968147
1030.672241	109.484787	-7.219954	-21.933252
1031.033325	-49.263294	-24.596504	-4.557488
1031.394531	-59.199261	-61.849350	62.415512
1031.755493	-121.337494	-24.596504	-2.075616
1032.116577	-111.390869	-9.702043	-4.557488
1032.477417	-2.090599	-2.256225	-71.606644
1032.838257	-26.913630	-51.912930	2.887680
1033.199097	-44.296009	-74.272156	-54.216141
1033.559937	-118.850647	15.113743	-41.797462
1033.920654	-31.879438	-29.562252	10.331910
1034.281128	-76.591255	-37.011532	-66.637321
1034.641724	2.872833	-79.242134	-19.450647
1035.002197	-12.018582	72.150810	-26.898640
1035.362671	22.721992	-79.242134	-93.973442
1035.722900	40.084641	-17.148802	-91.487907
1036.083252	-69.136925	-34.528286	-64.152954
1036.443481	-12.018582	-17.148802	-49.248432
1036.803711	-93.988449	-9.702043	-74.091461
1037.163940	-9.536396	-34.528286	-49.248432
1037.523804	25.202721	-86.697754	45.059380
1037.883789	-111.390869	2.707221	-101.430962
1038.243774	-41.812458	39.919132	22.736969
1038.603638	-19.465635	-17.148802	0.406152
1038.963257	17.760361	-24.596504	-56.700218
1039.323120	-69.136925	-41.978195	-24.415827
1039.682861	-54.231133	-19.631310	-46.764671
>>>>>End Processed Spectral Data<<<<<
