0.0 1883.01102
0.0 1887.64923
-0.0 1892.28699
-0.0 1896.92459
-0.0 1901.56158
-0.0 1906.19812
-0.0 1910.83435
0.0 1915.47043
0.0 1920.1059
0.0 1924.74091
-0.0 1929.37561
0.0 1934.01001
0.0 1938.6441
-0.0 1943.27759
0.0 1947.91077
-0.0 1952.54349
0.0 1957.17575
0.0 1961.80786
0.0 1966.43951
-0.0 1971.07071
0.0 1975.70145
0.0 1980.33203
0.0 1984.96216
0.0 1989.59167
0.0 1994.22089
-0.0 1998.84979
0.0 2003.47855
0.0 2008.10654
-0.0 2012.73422
0.0 2017.3616
-0.0 2021.98853
-0.0 2026.61514
-0.0 2031.2413
0.0 2035.867
-0.0 2040.4924
0.0 2045.11734
-0.0 2049.74197
-0.0 2054.36615
-0.0 2058.99002
-0.0 2063.61343
0.0 2068.23654
-0.0 2072.85919
-0.0 2077.48123
0.0 2082.10327
0.0 2086.72485
-0.0 2091.34583
0.0 2095.96649
-0.0 2100.5867
-0.0 2105.20676
-0.0 2109.82635
-0.0 2114.44534
-0.0 2119.06403
-0.0 2123.6824
-0.0 2128.30048
-0.0 2132.91779
-0.0 2137.53494
-0.0 2142.15179
-0.0 2146.76819
-0.0 2151.38412
-0.0 2155.9996
-0.0 2160.61493
-0.0 2165.22949
-0.0 2169.84406
-0.0 2174.45801
0.0 2179.07166
-0.0 2183.68484
-0.0 2188.29773
-0.0 2192.91031
-0.0 2197.52228
-0.0 2202.13379
-0.0 2206.745
-0.0 2211.35574
-0.0 2215.96634
0.0 2220.57648
0.0 2225.186
-0.0 2229.79553
-0.0 2234.4043
0.0 2239.01276
-0.0 2243.62076
-0.0 2248.22845
-0.0 2252.83569
-0.0 2257.44278
-0.0 2262.0491
-0.0 2266.65512
0.0 2271.26114
-0.0 2275.86639
-0.0 2280.47119
-0.0 2285.07568
-0.0 2289.67972
-0.0 2294.28345
-0.0 2298.88687
-0.0 2303.48984
-0.0 2308.09219
-0.0 2312.6944
-0.0 2317.29614
-0.0 2321.89758
-0.0 2326.49841
-0.0 2331.09894
-0.0 2335.69901
-0.0 2340.29892
-0.0 2344.89822
-0.0 2349.49707
-0.0 2354.09561
-0.0 2358.69385
-0.0 2363.29163
0.0 2367.88895
0.0 2372.48581
-0.0 2377.08237
-0.0 2381.67847
0.0 2386.27441
-0.0 2390.8696
0.0 2395.46463
-0.0 2400.0592
-0.0 2404.65332
-0.0 2409.24698
-0.0 2413.84033
-0.0 2418.43338
-0.0 2423.02597
-0.0 2427.6181
0.0 2432.20993
-0.0 2436.80115
0.0 2441.39221
-0.0 2445.98282
-0.0 2450.57297
-0.0 2455.16266
0.0 2459.75189
-0.0 2464.34082
-0.0 2468.92944
0.0 2473.51761
-0.0 2478.10516
-0.0 2482.69272
-0.0 2487.27951
-0.0 2491.866
0.0 2496.45218
-0.0 2501.0379
-0.0 2505.62317
-0.0 2510.20813
-0.0 2514.79279
-0.0 2519.37668
-0.0 2523.96057
-0.0 2528.54385
0.0 2533.12683
-0.0 2537.7092
0.0 2542.29126
-0.0 2546.87302
-0.0 2551.45432
0.0 2556.035
-0.0 2560.61584
-0.0 2565.19592
-0.0 2569.7757
-0.0 2574.35455
-0.0 2578.93372
0.0 2583.51196
-0.0 2588.0899
-0.0 2592.66754
-0.0 2597.24487
-0.0 2601.8219
-0.0 2606.39832
-0.0 2610.97443
0.0 2615.54993
-0.0 2620.12512
-0.0 2624.69971
-0.0 2629.27429
-0.0 2633.84827
-0.0 2638.42194
0.0 2642.9953
0.0 2647.56805
-0.0 2652.1405
-0.0 2656.71234
-0.0 2661.28387
-0.0 2665.8551
-0.0 2670.42572
-0.0 2674.99573
0.0 2679.56604
-0.0 2684.13574
0.0 2688.70483
-0.0 2693.27362
-0.0 2697.8418
-0.0 2702.40936
-0.0 2706.97693
-0.0 2711.54419
-0.0 2716.11053
-0.0 2720.67688
-0.0 2725.24292
-0.0 2729.80835
-0.0 2734.37347
-0.0 2738.93799
0.0 2743.5025
-0.0 2748.0661
-0.0 2752.62939
-0.0 2757.19238
-0.0 2761.75507
-0.0 2766.31714
-0.0 2770.87891
0.0 2775.44067
-0.0 2780.00122
-0.0 2784.56177
-0.0 2789.12201
-0.0 2793.68164
-0.0 2798.24097
-0.0 2802.79968
-0.0 2807.3584
0.0 2811.9162
-0.0 2816.474
-0.0 2821.03149
-0.0 2825.58838
-0.0 2830.14465
-0.0 2834.70062
0.0 2839.25629
-0.0 2843.81134
-0.0 2848.36639
-0.0 2852.92053
-0.0 2857.47467
-0.0 2862.0282
-0.0 2866.58142
-0.0 2871.13434
0.0 2875.68634
-0.0 2880.23804
0.0 2884.78973
-0.0 2889.34113
0.0 2893.8913
-0.0 2898.44208
0.0 2902.99164
0.0 2907.54089
0.0 2912.08984
0.0 2916.63879
-0.0 2921.18683
-0.0 2925.73456
0.0 2930.28198
-0.0 2934.82849
-0.0 2939.37561
-0.0 2943.92151
-0.0 2948.46741
-0.0 2953.01239
-0.0 2957.55737
-0.0 2962.10175
-0.0 2966.64581
0.0 2971.18958
-0.0 2975.73242
-0.0 2980.27557
0.0 2984.81812
0.0 2989.35974
-0.0 2993.90137
0.0 2998.44238
-0.0044978719772 3002.9834
-0.0107494869104 3007.5235
-0.00349906278993 3012.0636
-0.00879113503016 3016.60278
-0.00583168613135 3021.14197
-0.0059183716854 3025.68054
-0.00398902641686 3030.21881
4.87473036348e-05 3034.75677
0.00271591337044 3039.29413
-0.00474235435374 3043.83118
-0.00537723216822 3048.36761
0.00457969334443 3052.90375
-0.00567418011291 3057.43958
0.000647134308947 3061.9751
-0.00466833037558 3066.5097
-0.00516527788403 3071.04431
-0.000519597215683 3075.578
-0.000507475153885 3080.11169
0.00274609974847 3084.64508
0.00109983035198 3089.17755
-0.00849824668727 3093.71063
0.00182344013552 3098.24219
-0.00625170626547 3102.77374
0.00479137207286 3107.30499
-0.00420546306313 3111.83563
0.0030445517076 3116.36597
-0.00423340794955 3120.89569
-0.00779451004715 3125.42511
-0.0085863827999 3129.95422
-0.0106349034042 3134.48273
-0.00579296089764 3139.01093
0.00105101043785 3143.53882
0.00104177250721 3148.0658
-0.00490163752967 3152.59308
-0.00702276608745 3157.11975
-0.00451053718263 3161.64581
-0.00466747279273 3166.17126
0.00604487922556 3170.69672
0.00162884752058 3175.22156
0.00294736456109 3179.74579
0.00114188515915 3184.27002
-0.00215126363877 3188.79333
-0.004088209454 3193.31665
-0.00579291070214 3197.83936
-0.00318970166092 3202.36176
-0.00404133784415 3206.88354
-0.00639566174237 3211.40503
-0.00574837916035 3215.92651
-0.00167656724854 3220.44647
0.00409723330643 3224.96704
-0.00445297580428 3229.48639
-0.000391157465804 3234.00604
0.00769575351652 3238.52509
-0.00272676975777 3243.04352
0.000247028616564 3247.56165
-0.00186325935034 3252.07916
-0.00311365322719 3256.59668
0.00337051808768 3261.11328
-0.00452198316621 3265.62988
-0.000376253780644 3270.14557
0.00186213917644 3274.66156
-0.00579684677716 3279.17664
-0.00056240636646 3283.6911
-0.00212276431658 3288.20557
0.00080499521599 3292.71942
-0.000920636296195 3297.23297
-0.00109472458883 3301.74561
0.000215593659568 3306.25854
-0.000333562982505 3310.77026
0.000387977636413 3315.28229
0.00143910917836 3319.7937
-0.00344212081966 3324.3045
-0.00168001169399 3328.815
-0.00384441258608 3333.32489
-0.00179806476467 3337.83478
-0.0024302486763 3342.34406
-0.00207750667816 3346.85303
-0.000133414429461 3351.36078
-0.00504904884461 3355.86914
-0.00500232717725 3360.37659
-0.00433441023487 3364.88342
-0.00414138037059 3369.39026
-0.0019618656509 3373.89648
-0.00300299477673 3378.4024
-0.00132335512824 3382.90771
-0.00709364496561 3387.41272
-0.00275935457945 3391.91681
-0.00272699960845 3396.4212
0.00145384030465 3400.92468
0.00115429052471 3405.42816
-0.000256247354043 3409.93103
0.00375355007682 3414.43329
-0.00271443672595 3418.93555
-0.000112866577984 3423.43689
0.00283737845485 3427.93793
0.000686119589489 3432.43866
-0.0036627353466 3436.93878
-0.00193204055629 3441.4389
0.000150348431125 3445.93842
0.00244290575001 3450.43732
0.00140797005411 3454.93591
0.000644278414845 3459.43359
-0.00121283243434 3463.93158
-0.00132130831858 3468.42896
-0.00191028356359 3472.92542
-9.94573247332e-05 3477.42218
-0.00329044470814 3481.91803
-0.00279080173604 3486.41357
-0.00276611544205 3490.90881
0.000364245355746 3495.40314
-0.00306376148164 3499.89777
-0.00258637156614 3504.39148
-0.00087999914998 3508.88489
-0.00310247032491 3513.37799
-0.00296497261088 3517.87048
-0.00118549563804 3522.36267
-0.000848568674736 3526.85425
-0.00309135630305 3531.34552
-0.00316239993026 3535.83649
-0.00123910727689 3540.32684
-8.61939482952e-05 3544.81659
-0.000596130996472 3549.30634
-0.00291317789248 3553.79517
-0.00547996856799 3558.2843
-0.00166271848371 3562.77222
0.000407176749019 3567.26013
-0.00124248710424 3571.74774
-0.00363146251149 3576.23444
-0.000649736111853 3580.72113
-0.000832740096048 3585.20721
0.00113666257045 3589.69299
-0.000169837827147 3594.17786
-7.65092685514e-05 3598.66302
-0.000348688974848 3603.14697
-0.00250870230599 3607.63123
-0.000431111644785 3612.11456
-7.35687523891e-05 3616.5976
-0.00427065600078 3621.08032
-0.00154227197358 3625.56244
-0.00203985135927 3630.04456
-0.00261187909146 3634.52576
-0.000907847745814 3639.00696
-0.000152044779697 3643.48663
0.000342058523844 3647.96722
0.000257412818102 3652.4469
-0.0036129073111 3656.92596
0.000491687042761 3661.40472
-0.00267469358903 3665.88287
0.000326104155638 3670.36102
-0.00208247800604 3674.83826
1.28110595957e-05 3679.31549
0.000241285930894 3683.79181
-0.001801412337 3688.26843
-0.000661793332586 3692.74384
8.66591703985e-05 3697.21924
-0.00124053164778 3701.69403
-0.00144976785142 3706.16821
-0.0021634934894 3710.6427
-0.000922799240191 3715.11566
-0.00155756233426 3719.58923
-0.00140338443059 3724.06158
-0.000268959488311 3728.53424
-0.00165938631497 3733.00568
-0.00212968324316 3737.47711
-0.000262471992036 3741.94794
-0.000939633001319 3746.41846
-0.00147103167141 3750.88898
-0.00185977163186 3755.35828
-0.00131363340707 3759.82758
-0.000908059731811 3764.29596
-0.000119229065679 3768.76465
0.000783722756169 3773.23242
-0.00088323111315 3777.69989
0.0010218610127 3782.16675
-0.000616092150894 3786.6333
-0.000796785774417 3791.09985
-0.00214477323632 3795.56519
-0.00029494395975 3800.03052
-0.00204978572434 3804.49524
-0.0017340502102 3808.95996
-0.000766376244983 3813.42377
-0.00194938213916 3817.88727
-0.000816221693107 3822.35046
-0.000518289152851 3826.81274
-0.000282082828595 3831.27533
-0.000106445448067 3835.73669
-0.000857216661059 3840.19836
-0.000507946398496 3844.65912
0.000753234157918 3849.11957
0.000977580003908 3853.57971
-0.000614675153252 3858.03925
-0.000160105527513 3862.49847
-0.00066642660883 3866.95679
-0.000776615831068 3871.41541
-0.000550449888842 3875.87311
0.000455839989924 3880.33051
0.000232072824444 3884.78729
0.000120437660608 3889.24408
-0.000212717341249 3893.69995
-0.000655610895383 3898.15552
-0.000433241092235 3902.61078
0.000230025503409 3907.06543
6.43154558394e-05 3911.52008
-0.000266112826563 3915.97351
-0.00103586485541 3920.42725
-0.000155596326331 3924.87976
-0.0004297336373 3929.33289
-0.0006485267134 3933.78479
-0.00157914041408 3938.23639
0.000118463168742 3942.68768
-0.000318672343949 3947.13837
-0.00102805058561 3951.58905
0.000499520734481 3956.03851
-0.00135256883423 3960.48798
-0.0011330680603 3964.93683
-0.000479566147379 3969.38568
-0.00053295638296 3973.83392
-0.000369634819228 3978.28156
-0.000476854643758 3982.72888
8.97506258006e-06 3987.1756
-0.000743538010416 3991.62201
-0.000741853786281 3996.06781
0.000329832013196 4000.51361
-0.000418213225239 4004.95819
0.000434988219735 4009.40308
0.000593626093054 4013.84705
0.00154720803687 4018.29102
0.00233829495175 4022.73438
0.00217615376457 4027.17682
0.0062798114885 4031.61926
0.0204761384556 4036.0611
0.0575013981623 4040.50293
0.0991254185072 4044.94385
0.116986820157 4049.38446
0.0939216177122 4053.82477
0.058043525502 4058.26447
0.0390627144308 4062.70386
0.0291150633632 4067.14233
0.0204629920463 4071.58081
0.017925933327 4076.01868
0.018020444204 4080.45624
0.0135203569574 4084.89319
0.0106681969776 4089.33014
0.00822745220008 4093.76617
0.00573260787836 4098.2019
0.00520968269958 4102.63702
0.00302547745888 4107.07184
0.0017244899596 4111.50635
0.00426368250491 4115.94025
0.00400017753827 4120.37384
0.00409856119821 4124.80682
0.00440250300305 4129.23981
0.00155873682677 4133.67126
0.00289562418455 4138.10333
0.00427709413812 4142.53479
0.00385830644721 4146.96533
0.00471869317256 4151.39587
0.00287078307174 4155.82581
0.00296525317803 4160.25543
0.00600022858825 4164.68414
0.00593251045693 4169.11285
0.00536062734946 4173.54065
0.00624774851838 4177.96875
0.00447550321533 4182.39594
0.0047606284483 4186.82281
0.00598873081843 4191.24908
0.00661364328038 4195.67505
0.00733351030228 4200.10071
0.0052928043983 4204.52545
0.00576942167906 4208.9502
0.0062446208078 4213.37372
0.00730506216929 4217.79785
0.00636442103921 4222.22107
0.00615911832763 4226.64368
0.00853139617141 4231.06628
0.00740693736631 4235.48798
0.00783781008453 4239.90967
0.00749484136289 4244.33044
0.0083164679398 4248.75092
0.00710508742537 4253.17078
0.00822062298001 4257.59064
0.00802948479538 4262.00989
0.0102613261993 4266.42853
0.0092501841446 4270.84686
0.0105167627652 4275.26459
0.00984547770902 4279.68201
0.0103377121873 4284.09912
0.0101497131033 4288.51563
0.0113678711907 4292.93121
0.0113210357511 4297.34711
0.0119496954466 4301.76239
0.0111668337994 4306.17706
0.0114464986448 4310.59113
0.0106560667505 4315.00488
0.0109270591954 4319.41833
0.0101807051038 4323.83087
0.0133294584296 4328.24341
0.013966186864 4332.65533
0.0159809261567 4337.06726
0.0189778037927 4341.47827
0.0328639330778 4345.88867
0.0884535595856 4350.29877
0.200946020434 4354.70825
0.284979248912 4359.11804
0.289835427257 4363.52661
0.19886077976 4367.93518
0.133879372839 4372.34283
0.101823966739 4376.75049
0.0751277353737 4381.15723
0.0466808586039 4385.56396
0.0287096222018 4389.9704
0.020157018763 4394.37561
0.0162433261661 4398.78113
0.0167332061294 4403.18573
0.0152172791375 4407.59033
0.0149822816856 4411.99341
0.014117345981 4416.39709
0.0140722661585 4420.79956
0.012590715058 4425.20264
0.0150238176981 4429.6051
0.0131976028028 4434.00604
0.0139274194675 4438.40759
0.0147897356568 4442.80762
0.0158273855667 4447.20825
0.0139798397822 4451.60767
0.015104732226 4456.00739
0.0138378863275 4460.40558
0.0149554745182 4464.80438
0.0134696206929 4469.20258
0.0148416166404 4473.59955
0.0130516320249 4477.99713
0.0151558282233 4482.39319
0.0151571298559 4486.78955
0.0127262760181 4491.185
0.0139905672371 4495.58014
0.0140821925029 4499.97498
0.0139593068858 4504.36951
0.0143970099338 4508.76343
0.013548732186 4513.15674
0.0145019709073 4517.54974
0.0139170331713 4521.94183
0.0141027768597 4526.33392
0.0130568304646 4530.7251
0.0134175433886 4535.11688
0.0136945783709 4539.50684
0.0147771421819 4543.8974
0.0137469442609 4548.28735
0.0146216823335 4552.67639
0.0136409825921 4557.06543
0.0118601230831 4561.45325
0.0138805922987 4565.84137
0.0116809219628 4570.22858
0.0129827535763 4574.61578
0.0120467132007 4579.00208
0.0115716525763 4583.38867
0.0124815096703 4587.77405
0.0142203521277 4592.15912
0.0126806822021 4596.54388
0.0122677992926 4600.92773
0.0125990588697 4605.31189
0.0139549772828 4609.69513
0.0117876734961 4614.07806
0.0136537765895 4618.46008
0.0114962807203 4622.84241
0.0117902608074 4627.22351
0.0122355375189 4631.60461
0.0114690546436 4635.98541
0.01170026476 4640.3653
0.0123548544429 4644.74518
0.0127581565954 4649.12384
0.0106339070495 4653.50281
0.0122230685057 4657.88086
0.00940916373434 4662.25891
0.0121381287653 4666.63605
0.0116443917334 4671.01318
0.0106045877408 4675.39001
0.0110784356029 4679.76563
0.0106380708753 4684.14124
0.0107044696437 4688.51593
0.009494995204 4692.89063
0.00995206415576 4697.2644
0.00956644450905 4701.63849
0.00925453062158 4706.01135
0.00952102529858 4710.38422
0.00981091718428 4714.75677
0.00850527995283 4719.12811
0.0089886797551 4723.50006
0.0101316624026 4727.87048
0.0103201246174 4732.24121
0.00984180497098 4736.61072
0.00838163059501 4740.98053
0.00988925990203 4745.34943
0.0092155909266 4749.71802
0.00921158327468 4754.0863
0.00920610908775 4758.45367
0.0094307545985 4762.82104
0.00890617305198 4767.1875
0.00746339063544 4771.55426
0.0088394215348 4775.91949
0.00839415532447 4780.28503
0.00703771429515 4784.64966
0.00879139639291 4789.01428
0.00920551895794 4793.3786
0.00854253303586 4797.7417
0.00966944706837 4802.1051
0.00937504118544 4806.46698
0.0118422596985 4810.82947
0.0117335623016 4815.19073
0.0116560059041 4819.552
0.0147931072157 4823.91266
0.0163163279132 4828.27301
0.0178148710191 4832.63306
0.0226586187755 4836.99188
0.0248614773726 4841.35101
0.0283930453787 4845.70923
0.0319339132901 4850.06744
0.0351977869217 4854.42413
0.0404522351558 4858.78174
0.0455314910016 4863.13782
0.0475069959751 4867.4939
0.0495051756606 4871.84998
0.0505546687228 4876.20453
0.0493934674032 4880.55939
0.0487786123073 4884.91333
0.0459905223647 4889.26727
0.0445468012519 4893.6203
0.0429599008196 4897.97302
0.0415398234994 4902.32513
0.0383420424127 4906.67755
0.0366529670265 4911.02905
0.0366251842669 4915.37964
0.0352089191206 4919.73022
0.0329031608889 4924.0799
0.0322466712857 4928.42957
0.0301480988675 4932.77832
0.0298336681522 4937.12738
0.0264512192301 4941.47491
0.0256649425888 4945.82275
0.0250267232768 4950.17029
0.0240289331642 4954.5166
0.0230778628334 4958.86292
0.0224762400615 4963.20831
0.0205870507857 4967.55402
0.0197139787547 4971.8985
0.018825656439 4976.24298
0.0176196221425 4980.58655
0.0160152483505 4984.93042
0.0156848833434 4989.27368
0.0142101298156 4993.61572
0.0138868236115 4997.95807
0.0132242000975 5002.29919
0.012121690649 5006.64063
0.01096081834 5010.98083
0.00974073179827 5015.32104
0.00916630866034 5019.66064
0.00802784105232 5023.99994
0.00763531900066 5028.33893
0.00700058273762 5032.677
0.00711036271758 5037.01477
0.00655527908491 5041.35193
0.00557856247175 5045.68909
0.00558658103232 5050.02502
0.00461297240165 5054.36127
0.00478258302567 5058.69629
0.00441329549013 5063.03162
0.00378696521853 5067.36603
0.00356178311672 5071.69983
0.00445180287932 5076.03363
0.00289760541905 5080.36621
0.00359156849124 5084.6994
0.00390798596238 5089.03107
0.00398681257388 5093.36304
0.00404626363964 5097.69379
0.00386785031125 5102.02484
0.0032524255028 5106.35529
0.00285487631447 5110.68481
0.00281488214535 5115.01434
0.00285416438988 5119.34265
0.00334998821036 5123.67126
0.00253434306732 5127.99927
0.002552941712 5132.32605
0.00330529651303 5136.65344
0.00324338666762 5140.97961
0.0024679213348 5145.30579
0.00323733497997 5149.63135
0.00287804739027 5153.95691
0.00228189405096 5158.28064
0.00261448156987 5162.60498
0.00263071386857 5166.92871
0.00266655730029 5171.25183
0.00166000776168 5175.57373
0.00214944632381 5179.89624
0.00177423553115 5184.21753
0.00210638456456 5188.53943
0.00167389956834 5192.86072
0.00208541099137 5197.18018
0.00183086571512 5201.50024
0.00112482559342 5205.81909
0.00208861860888 5210.13855
0.00193369146956 5214.45679
0.00132565234012 5218.77502
0.00146579754785 5223.09204
0.00107270317947 5227.40906
0.00143107942765 5231.72546
0.00179051879313 5236.04187
0.00161501646208 5240.35767
0.00133932417612 5244.67224
0.00184041650339 5248.98682
0.00140450710263 5253.30078
0.00194781871064 5257.61475
0.00175129875014 5261.92749
0.00195582037383 5266.24023
0.00210063039185 5270.55237
0.0013782959377 5274.86389
0.00182554817904 5279.17542
0.00217247113501 5283.48572
0.00258051110231 5287.79663
0.00292803462795 5292.10571
0.0023022202541 5296.41541
0.0021620027711 5300.72388
0.00224496442982 5305.03235
0.00277521238963 5309.34082
0.0026956362484 5313.64746
0.00257524324556 5317.95532
0.00361504939234 5322.26135
0.0039432680427 5326.56738
0.00593758607255 5330.8728
0.00772662217626 5335.17822
0.00860495729499 5339.48242
0.00749982902424 5343.78662
0.0076306835599 5348.09082
0.00833129784392 5352.39319
0.00870830468183 5356.69617
0.00933056782803 5360.99792
0.0110314946132 5365.29968
0.0137669085609 5369.60083
0.0169645610208 5373.90137
0.0210439450183 5378.2019
0.0260968444547 5382.50183
0.0294205601891 5386.80115
0.034991555018 5391.09985
0.0412585762207 5395.39795
0.054174733038 5399.69543
0.0687477303496 5403.99292
0.0928437619444 5408.28979
0.120833429828 5412.58606
0.156698287496 5416.88171
0.178932571632 5421.17737
0.182336681289 5425.47302
0.182935070844 5429.76685
0.183139044692 5434.06128
0.185574792149 5438.35388
0.186434728178 5442.64771
0.18532556859 5446.9397
0.194958748869 5451.2323
0.253372129647 5455.52307
0.33119748671 5459.81506
0.381814276951 5464.10583
0.337411586027 5468.39539
0.250955162847 5472.68555
0.214239881721 5476.97449
0.197350452937 5481.26282
0.182229208578 5485.55054
0.158970758127 5489.83887
0.134004784894 5494.12598
0.109982993455 5498.41309
0.0936531300568 5502.69958
0.0804694629193 5506.98486
0.0725572213494 5511.27075
0.0639087653365 5515.55481
0.0574726789273 5519.83948
0.0514302298418 5524.12292
0.0448298191495 5528.40698
0.0402500699984 5532.6886
0.0359698447218 5536.97205
0.0308935643222 5541.25366
0.0276998898618 5545.53467
0.0243205239903 5549.81628
0.0222243583152 5554.09607
0.0187917995261 5558.37646
0.016462816833 5562.65564
0.0138075185506 5566.93481
0.0125242732484 5571.21338
0.0105800923532 5575.49133
0.0105477223619 5579.76929
0.00838917006036 5584.04602
0.00757113971862 5588.32275
0.00749940494005 5592.59888
0.00791750992897 5596.87439
0.00684943633273 5601.14929
0.00627205799979 5605.42419
0.00614351649534 5609.69788
0.00591092877527 5613.97156
0.00546755928875 5618.24524
0.00528212220299 5622.5177
0.00475647014285 5626.79016
0.0047033171976 5631.0614
0.00486780942943 5635.33264
0.00389028925385 5639.60327
0.00334057481539 5643.87329
0.00376977838193 5648.14331
0.00398436546217 5652.41272
0.00417940794481 5656.68213
0.00353552894062 5660.94971
0.00441923094686 5665.2179
0.00345677773638 5669.48425
0.00306770485301 5673.75183
0.00332868761224 5678.01819
0.00334196341782 5682.28394
0.00401345126905 5686.54846
0.00368629039508 5690.81421
0.00271474400452 5695.07874
0.00300016773954 5699.34265
0.00340256625218 5703.60596
0.00265040794994 5707.86865
0.00307767510021 5712.13074
0.00227199144871 5716.39282
0.00298181373884 5720.6543
0.00245198005757 5724.91516
0.00161122866099 5729.17603
0.00327227631902 5733.43567
0.00269065715725 5737.69531
0.0033183241675 5741.95435
0.00325794472866 5746.21277
0.00312518856437 5750.47119
0.00524617289815 5754.72839
0.00466235469843 5758.9856
0.0130905996877 5763.24158
0.0283553287511 5767.49817
0.0410491338289 5771.75293
0.0439409534266 5776.0083
0.0308770089783 5780.26306
0.030800579847 5784.51721
0.0434575878004 5788.77136
0.0560291550874 5793.02429
0.0588002697126 5797.27661
0.0457246663214 5801.52832
0.0404340991765 5805.78064
0.0364552523011 5810.03113
0.0360876569997 5814.28223
0.0361793345529 5818.53271
0.0369761934797 5822.78198
0.0391401270942 5827.03125
0.0395977944145 5831.2793
0.0414448528278 5835.52795
0.0431891285136 5839.77539
0.0429093081863 5844.02283
0.042118919993 5848.26965
0.0424978667935 5852.51587
0.0415532018845 5856.76208
0.0407452606061 5861.00647
0.0420688888282 5865.25208
0.0480574220535 5869.49524
0.0531230192766 5873.73962
0.0556516047111 5877.98218
0.0502737745623 5882.22534
0.0452371174922 5886.46729
0.0390340839639 5890.70984
0.0360450067098 5894.95117
0.034742107001 5899.19128
0.0334849194297 5903.43201
0.0321431636683 5907.67151
0.0294002798557 5911.91101
0.0297869531864 5916.1499
0.0300670967173 5920.38818
0.0342256569312 5924.62524
0.0379926375458 5928.86292
0.040749614138 5933.10059
0.0412593139998 5937.33582
0.0374138691469 5941.57227
0.0341669624961 5945.8075
0.0296156807063 5950.04272
0.0280893109482 5954.27673
0.0262950919192 5958.51074
0.0227163605621 5962.74353
0.0216236333747 5966.97632
0.0191896268381 5971.20911
0.0191641976048 5975.44067
0.0193590936979 5979.67224
0.0206142254184 5983.9032
0.0220153685603 5988.13354
0.0238612849875 5992.36328
0.02544618076 5996.59241
0.02641171516 6000.82153
0.0251893667948 6005.05005
0.022683648976 6009.27795
0.0198985482501 6013.50525
0.0188369503956 6017.73254
0.0174260441895 6021.95862
0.015719657843 6026.18408
0.014757657102 6030.40955
0.0129132730195 6034.6344
0.0127248722361 6038.85925
0.0108366751816 6043.0835
0.0114910882764 6047.30652
0.0122855849838 6051.52893
0.0125422036099 6055.75195
0.01327916035 6059.97375
0.0141571561474 6064.19495
0.0162749603042 6068.41553
0.0176858631971 6072.63672
0.0188417626595 6076.85608
0.0218734009606 6081.07605
0.0270684465121 6085.2948
0.0329798295823 6089.51294
0.0414639607527 6093.73108
0.0560512161796 6097.948
0.0829117258346 6102.16553
0.135876115909 6106.38123
0.21057791605 6110.59753
0.286061393127 6114.81262
0.303822693272 6119.02832
0.274083327478 6123.24219
0.232295788059 6127.45605
0.205623851189 6131.66931
0.194500278852 6135.88196
0.183641557402 6140.0946
0.173219878418 6144.30664
0.155391473619 6148.51807
0.136008365209 6152.72827
0.116046358676 6156.93909
0.0950381673277 6161.14929
0.0812731643896 6165.35889
0.0703018349052 6169.56787
0.0611840873664 6173.77563
0.0543789951528 6177.9834
0.0469483994924 6182.19055
0.0431299924986 6186.39832
0.0395207566726 6190.60364
0.0362747216514 6194.81018
0.0352634783483 6199.01611
0.0347184732223 6203.22083
0.0333957762697 6207.42493
0.0350643567429 6211.62842
0.0332895731398 6215.83191
0.0349287883983 6220.03418
0.035037458018 6224.23706
0.0355818246617 6228.43872
0.0365059547559 6232.64038
0.035519036099 6236.84143
0.0379831217268 6241.04126
0.0369585649566 6245.2417
0.0379374619243 6249.44031
0.036825660152 6253.64014
0.0377397842948 6257.83752
0.0381439449118 6262.03552
0.0375452642425 6266.2323
0.0376493947314 6270.42969
0.0362132657577 6274.62585
0.0355449735728 6278.82141
0.0342353010195 6283.01697
0.0319389574381 6287.2113
0.0314873607216 6291.40625
0.0327075190506 6295.59998
0.0338632006479 6299.79309
0.0378284202602 6303.9856
0.04440989164 6308.1781
0.0498919336967 6312.37
0.0476690221592 6316.56067
0.0411137977808 6320.75195
0.0332312682843 6324.94202
0.0301192624544 6329.13208
0.0271511931313 6333.32092
0.0207686708456 6337.50977
0.0203472720824 6341.69739
0.0171420595562 6345.88562
0.0136518147258 6350.07263
0.0111729329216 6354.25964
0.0109226641614 6358.44543
0.00873650371763 6362.63123
0.00818040310338 6366.81641
0.00791373603781 6371.00037
0.0057961095381 6375.18494
0.00681617672679 6379.36829
0.00631632264244 6383.55164
0.00599925308608 6387.73438
0.00511767115584 6391.9165
0.00633454057074 6396.09863
0.0048454805012 6400.27893
0.00512400524423 6404.45984
0.00521451793419 6408.63953
0.00465905466649 6412.81921
0.00551154541102 6416.99829
0.00415026442526 6421.17676
0.0054286353481 6425.35461
0.00579060868649 6429.53247
0.00465024419898 6433.70972
0.00454798268925 6437.88635
0.0065796261582 6442.06177
0.00554976627897 6446.23718
0.00564577268308 6450.4126
0.00480225593589 6454.58618
0.00462192696679 6458.76099
0.00499340440811 6462.93396
0.00615915840993 6467.10693
0.00486937237228 6471.27991
0.00532467211116 6475.45166
0.00506188733573 6479.62341
0.00535830092754 6483.79333
0.0070220975116 6487.96448
0.00695961029848 6492.13379
0.00721807156107 6496.3031
0.00921373759535 6500.4718
0.0113735360392 6504.63989
0.0131720683978 6508.80859
0.0133559802012 6512.97546
0.0132968938479 6517.14233
0.00978252460098 6521.30859
0.0105740609612 6525.47485
0.0105934627513 6529.63928
0.010368810985 6533.80432
0.00989851160254 6537.96814
0.00872775461348 6542.13196
0.00684889914406 6546.29578
0.00810807351293 6550.45837
0.00713241589723 6554.62036
0.00669276300062 6558.78174
0.00767042220023 6562.94312
0.00723053430674 6567.10327
0.00695634544597 6571.26404
0.0066810296477 6575.42358
0.00712250564862 6579.58252
0.00608481609612 6583.74084
0.00631619676948 6587.89917
0.00590984907206 6592.05688
0.00567220983199 6596.21338
0.00422962720082 6600.37048
0.00415694892621 6604.52637
0.00481896125962 6608.68164
0.00509380942029 6612.83691
0.00458647381572 6616.99158
0.00730150815504 6621.14502
0.0085424354537 6625.29846
0.00891411817414 6629.45129
0.0078847937134 6633.60413
0.00733327586951 6637.75635
0.00779349955819 6641.90674
0.00524810703032 6646.05835
0.00601871908852 6650.20813
0.00545850877634 6654.35791
0.00543249454272 6658.50769
0.00473414640742 6662.65625
0.00484320269758 6666.8042
0.00400298026293 6670.95215
0.00443046226793 6675.09949
0.00390217796715 6679.24622
0.00529828564948 6683.39233
0.00338477701453 6687.53784
0.00367886147126 6691.68335
0.00364881457735 6695.82825
0.00455357390667 6699.97192
0.00438448588534 6704.1156
0.00416593460931 6708.25867
0.00479696170997 6712.40173
0.00319866206858 6716.54358
0.00363962154083 6720.68481
0.00365263869133 6724.82605
0.00385800484611 6728.96667
0.00363100793758 6733.10669
0.00470918431742 6737.24609
0.00360990704476 6741.38489
0.00357517897254 6745.52307
0.00226606779414 6749.66064
0.00217671302575 6753.79822
0.00129534273595 6757.93579
0.00437698453606 6762.07153
0.00265231981643 6766.20789
0.00256334887214 6770.34241
0.00277511361445 6774.47754
0.00379547606883 6778.61206
0.00305163760996 6782.74597
0.00306419044547 6786.87866
0.00419970155231 6791.01135
0.00396031791597 6795.14404
0.00238021374747 6799.27551
0.00197577385711 6803.40698
0.00296969466329 6807.53723
0.0047510633667 6811.66748
0.00273144867145 6815.79712
0.00142881840627 6819.92615
0.00486035088911 6824.05457
0.00355807079014 6828.18298
0.00314742021345 6832.31018
0.00267979579074 6836.43738
0.00226159818196 6840.56335
0.00350665540038 6844.68994
0.00200826135362 6848.81531
0.00326044574862 6852.93945
0.00441047659171 6857.06482
0.00426044088456 6861.18774
0.00296226489268 6865.31128
0.00433944033189 6869.43481
0.00703833815734 6873.55713
0.00952910927234 6877.67883
0.00658526174673 6881.79932
0.00865276023132 6885.92041
0.00735345677387 6890.04089
0.00715989684328 6894.16016
0.00517459232664 6898.27881
0.00491654261456 6902.39868
0.00301504151533 6906.51611
0.00422431900665 6910.63354
0.00315841838143 6914.75098
0.00254102829262 6918.86719
0.00307187478306 6922.9834
0.00146098806906 6927.099
0.00414329422266 6931.2146
0.00503256154901 6935.32837
0.00639319823747 6939.44214
0.00729082666943 6943.55652
0.00613597415492 6947.66846
0.00302551179039 6951.78101
0.00119656693333 6955.89294
0.000188513128236 6960.00366
0.00352946414532 6964.11438
0.00336258708265 6968.2251
0.00277528535165 6972.33459
0.000614243222162 6976.44409
0.000677783702903 6980.55298
0.000376194023873 6984.66064
0.00123630651842 6988.76831
0.00130455027696 6992.87537
0.000692108792248 6996.98181
-0.000924832728346 7001.08826
-0.000929689560452 7005.19348
0.0018355162299 7009.2981
0.00209687416267 7013.40271
-0.000752063370871 7017.50732
0.00160436789822 7021.61011
0.000714472006191 7025.7135
0.000588204823901 7029.81567
0.00303138655856 7033.91724
0.00335895651188 7038.0188
0.00278454713186 7042.11914
0.00291772225393 7046.21948
0.00259876957449 7050.31921
0.00486758349865 7054.41895
0.00565413251343 7058.51746
0.00871505356436 7062.61536
0.0128279955451 7066.71265
0.0155355485866 7070.81055
0.0170939278817 7074.90662
0.0182776051115 7079.0033
0.0171769932011 7083.09814
0.0221318102082 7087.19299
0.0217018070399 7091.28784
0.0247808503264 7095.38147
0.0241475660857 7099.4751
0.0197526282052 7103.5675
0.0159830287507 7107.66052
0.013462464566 7111.75171
0.0147897657493 7115.8429
0.0178870725504 7119.93347
0.0212662914095 7124.02405
0.0205047748456 7128.11401
0.0196035194732 7132.20276
0.0127900931192 7136.2915
0.0114477043769 7140.37964
0.00877981065875 7144.46777
0.00664980562547 7148.55408
0.00828407270375 7152.64099
0.00557679311446 7156.72668
0.00284405049345 7160.81177
0.00271513912234 7164.89746
0.00301438922015 7168.98132
0.00245583720565 7173.06519
0.00239733257566 7177.14844
0.00161195036288 7181.23108
-0.00108599012203 7185.31372
0.000454019011058 7189.39514
0.00334283349733 7193.47595
0.00127882748008 7197.55676
0.000312269786892 7201.63696
-0.000892054243695 7205.71716
0.00130011539951 7209.79614
0.00130658425353 7213.87451
-0.0002932597161 7217.95227
0.000780952494677 7222.02942
0.000321409236863 7226.10718
0.0014835761652 7230.18311
-0.000297879245353 7234.25903
-0.00115650096818 7238.33374
0.00220018941404 7242.40906
0.00103140744922 7246.48376
9.16263134459e-05 7250.55725
-0.000459214163591 7254.63013
-0.00156523557725 7258.703
-0.000856764725488 7262.77466
-0.00228683923659 7266.84631
-0.00173612095892 7270.91797
-0.000704315357013 7274.98779
-0.00134679655789 7279.05823
0.000254124894675 7283.12805
-0.000792142688066 7287.19666
0.000498325113752 7291.26526
-0.00047304440644 7295.33264
-0.000718426953013 7299.40063
0.000502567144152 7303.4668
0.00172754158694 7307.53357
0.000912615295222 7311.59851
-0.00145916123687 7315.66406
0.000258997020434 7319.729
-6.81410583583e-05 7323.79272
-0.00113067386794 7327.85645
1.36059811392e-05 7331.91895
-0.0023533144719 7335.98206
-0.00104605135001 7340.04333
-0.0019411577952 7344.10522
0.000664002462208 7348.16528
0.00147510143653 7352.22656
0.00033801578868 7356.28662
0.000256561855721 7360.34546
-0.000714873965683 7364.4043
-0.00200759966548 7368.46252
0.00299664335076 7372.52014
-0.00167967026963 7376.57715
-0.000952866877402 7380.63354
-0.00175710122489 7384.68933
-0.0036082372946 7388.74512
-0.000469048423837 7392.80029
-0.00103237401182 7396.85486
-0.00240242637225 7400.90881
-0.00192097485804 7404.96216
-0.000228569035911 7409.0155
-0.00168394029207 7413.06702
-0.000958000556661 7417.11914
-0.000473108531983 7421.17004
0.00155689294456 7425.22095
0.00107198266926 7429.27124
-0.00170129022317 7433.32031
-0.00105037212319 7437.37
-0.000396572730495 7441.41785
-0.00015084883246 7445.46631
0.00141651990503 7449.51355
0.000345174470899 7453.56079
-0.00031894558826 7457.6062
-0.0030813060273 7461.65283
0.000602150014771 7465.69824
0.000521170492792 7469.74243
0.000694547537837 7473.78723
-0.00101359382349 7477.8302
-0.000158104817761 7481.87378
-0.0022450430824 7485.91614
-0.000422912633728 7489.9585
-0.000337836623374 7493.99963
-0.000961706541927 7498.04077
0.0012657012554 7502.0813
-0.00178521169434 7506.12122
0.00173500935037 7510.16052
-0.000622798920323 7514.19922
-0.0010851920704 7518.23792
0.000107598092123 7522.27478
-0.00100526319723 7526.31226
-0.00157142842084 7530.34851
0.000484975775796 7534.38477
-0.000456555315009 7538.42102
-0.000744616732509 7542.45544
-0.000366703791617 7546.48987
0.000593677592533 7550.52368
-0.00114733707622 7554.5575
-0.00144814015636 7558.59009
-0.00224496017403 7562.62268
-0.00315228587281 7566.65405
0.00220795796799 7570.68542
0.000217427007272 7574.7168
-0.000488550242316 7578.74634
-0.00273274251764 7582.77588
-0.00213633680173 7586.8042
-0.00277099956755 7590.83374
-0.00195765528623 7594.86084
-0.00490275642227 7598.88916
0.00180580735936 7602.91504
0.00107589074364 7606.94214
-0.00104679095608 7610.96802
-0.000303128005317 7614.99268
-0.0010572617436 7619.01733
1.79955064875e-05 7623.04199
0.000993906325039 7627.06543
-0.00150679861103 7631.08826
0.00132979200863 7635.11108
0.00056698884924 7639.13208
-0.000312178866422 7643.15369
0.000571362766465 7647.17529
0.00212719396492 7651.19568
1.85765597989e-05 7655.21545
0.000690110892392 7659.23462
-0.00211761664051 7663.25317
0.000583155208996 7667.27112
-0.0039522926987 7671.28845
-0.00237367683061 7675.30518
0.00116277670572 7679.32251
-0.00273989419317 7683.33862
-0.00125046179238 7687.35413
0.00164123533254 7691.36841
0.000950102286261 7695.38269
0.000486706539133 7699.39636
-0.00244428027178 7703.41003
-0.00280723458472 7707.42249
-0.00293650925453 7711.43433
0.00120613027302 7715.44617
0.000377307570569 7719.4574
-0.00321334905993 7723.46802
-0.0034690921998 7727.47803
-0.00312318791742 7731.48682
-0.000587072522146 7735.49622
-0.00120079240297 7739.50439
-0.00427854254371 7743.51196
-0.00109010759333 7747.51892
-0.00295726271992 7751.52588
0.000270009663055 7755.53162
-0.00762669898606 7759.53735
0.000649696671072 7763.54309
-0.000357851566942 7767.54639
0.000147946280689 7771.5509
-0.00239918645281 7775.5542
-0.0033054855399 7779.5575
-0.00242030855236 7783.55896
-0.00165695714401 7787.56104
0.00105937942183 7791.56189
-0.0018051094336 7795.56274
-0.00339124874046 7799.56299
-0.00486530209493 7803.56201
0.00174795179263 7807.56165
-0.000378578103957 7811.56006
0.00297818038663 7815.55786
-0.00390080114259 7819.55505
-0.00215344591224 7823.55225
-0.00531195999654 7827.54761
0.000160230164286 7831.54358
-0.00149495631204 7835.53894
0.00196212393814 7839.53369
-0.0049879920367 7843.52783
-0.000674942566975 7847.52075
0.00100433074615 7851.51367
-0.00222858060069 7855.50598
-0.00153081469377 7859.49768
-0.00238899874636 7863.48877
-0.00382585259826 7867.47986
-0.00198085516247 7871.47034
0.000311610344904 7875.45959
0.00262445581198 7879.44885
0.00075021315437 7883.4375
-0.00187307111638 7887.42493
-0.00129521859683 7891.41235
-0.00144848791396 7895.39917
-0.0035272854657 7899.38538
-0.00175824314147 7903.37158
-0.00519876460956 7907.35718
-0.0038691139254 7911.34094
-0.000726069908026 7915.32532
0.000175788317686 7919.30847
-0.00209105418135 7923.29224
-0.00164185313392 7927.27417
-0.000430411719734 7931.2561
0.00169989840048 7935.23682
-0.00165383634107 7939.21753
-0.00165783393266 7943.19824
0.000792395584606 7947.17773
-0.00151268016365 7951.15723
0.0049584960918 7955.1355
-0.000748048250498 7959.11377
-0.000129421641214 7963.09082
0.00267519035236 7967.06787
-0.000130453171007 7971.0437
0.00301216074684 7975.01953
-0.00455662617937 7978.99536
0.00161283694557 7982.96936
-0.00172739942662 7986.94397
-0.00317753707495 7990.91736
-0.00142106464048 7994.89014
-0.00595331497627 7998.8623
-0.00321643208852 8002.83447
-0.00355278087618 8006.80542
-0.00405318023399 8010.77637
0.00100846552519 8014.7467
-0.0052222878811 8018.71643
-0.00391765670396 8022.68555
0.00364771867126 8026.65405
0.000357430539807 8030.62256
-0.00146075423286 8034.58923
-0.00312235966834 8038.55652
-0.00246519442458 8042.52258
-0.00530672224655 8046.48804
-0.00364943780632 8050.4541
-0.00332507932549 8054.41833
0.000196124694233 8058.38257
-0.00537258910674 8062.34619
-0.00488221842616 8066.30859
-0.00370906511094 8070.271
-0.00116459371416 8074.23279
-0.00459198253571 8078.19458
-0.00237586412765 8082.15515
-0.00290327381159 8086.11572
0.00625835998532 8090.07507
-0.00345219461611 8094.03381
-0.00259439345607 8097.99194
0.0063511645388 8101.95068
0.0025017425819 8105.90759
0.00233694495318 8109.8645
0.000386493472314 8113.8208
-0.00176235495187 8117.77649
0.00146893212046 8121.73157
-0.00466626362707 8125.68665
-0.00250570945163 8129.6405
-0.00396607069823 8133.59375
-0.00106183803536 8137.54639
-0.00307183537872 8141.49841
-0.0017981676055 8145.45105
-0.00161889842549 8149.40186
-0.00327648330742 8153.35266
-0.00512681515834 8157.30347
0.000584279391055 8161.25244
0.000400719100408 8165.20203
-0.00794850788938 8169.14978
-0.00108429978773 8173.09753
-0.00295156750217 8177.04468
-0.00370870916675 8180.99182
-0.00297097310586 8184.93774
-0.00241805040425 8188.88367
-0.00451407856554 8192.82898
0.00516947773913 8196.77307
-0.00456931568691 8200.71716
-0.00537380371226 8204.66003
-0.0028838329195 8208.60291
-0.000163145679484 8212.54517
-0.00568752904596 8216.48743
-0.0037384589339 8220.42786
-0.00655803632912 8224.3689
0.00264108597087 8228.30872
-0.00319247516451 8232.24792
-0.000775813773375 8236.18774
-0.00220063083229 8240.12512
-0.00791895657837 8244.06311
-0.00773922135979 8247.99988
0.00167424462111 8251.93665
-0.00366995164745 8255.8728
-0.00203012967619 8259.80835
-0.000794066428298 8263.74329
0.000242492207221 8267.67761
0.000243323310391 8271.61194
-0.00289542144355 8275.54443
-0.00500453734455 8279.47754
-0.00586086379624 8283.40942
-0.00186384799096 8287.34131
0.00552957085406 8291.27136
-0.00229600295988 8295.20264
-0.00378823109266 8299.13208
-0.00102875466299 8303.06152
-0.00487370629437 8306.99097
-0.00424456381097 8310.91797
-0.00576069134622 8314.84619
0.0013272945082 8318.77319
-0.00234084985449 8322.7002
-0.00538780700884 8326.62537
0.0043885607086 8330.55054
-0.00302495937175 8334.4751
-0.00413631563578 8338.39966
0.00157999174494 8342.32361
-0.00195670672893 8346.24634
-0.00864598172928 8350.16907
0.00160117324798 8354.09058
-0.00377955492091 8358.01208
-0.00357065032489 8361.93298
-0.00426599919497 8365.85327
-0.00223651696191 8369.77295
-0.00613084376086 8373.69202
-0.000649664669449 8377.61047
-0.00226388557503 8381.52832
-0.00250348677203 8385.44617
-0.00413626787787 8389.36218
-0.00414990301633 8393.27942
-0.00252829695991 8397.19421
-0.00394011953345 8401.11023
0.000508237784393 8405.0238
-0.00325373008876 8408.9386
-0.0023177522728 8412.85217
-0.00374013343584 8416.76453
-0.000197189025924 8420.67749
0.00501631027856 8424.58862
0.0014650781072 8428.49976
-0.00424928911453 8432.41028
0.00433744571365 8436.32019
0.00171700640285 8440.22949
0.00292546375129 8444.13879
-0.00189232761839 8448.04749
-0.00870258937123 8451.95496
-0.00191112957525 8455.86182
-0.0119897933121 8459.76807
-0.00514102623049 8463.67432
-0.000206736149602 8467.57996
-0.00195448527482 8471.48499
-0.00547890263069 8475.38879
-0.00374114100406 8479.2926
-0.00350612009817 8483.19641
-0.00734473750354 8487.09839
0.00259937113351 8491.00098
-0.00638217132266 8494.90234
0.00262239519405 8498.8031
-0.00332649900034 8502.70325
-0.00594629455435 8506.60339
-0.0119956960192 8510.50171
-0.00836660060664 8514.40125
-0.00338652831524 8518.29895
0.00375231014365 8522.19604
-0.00554475906314 8526.09314
-0.00797198855858 8529.98901
-0.00773185221552 8533.8855
-0.00318233276875 8537.78015
-0.000224728905586 8541.6748
-0.00292999301599 8545.56885
-0.0032087381566 8549.46228
-0.00376042843875 8553.35571
0.00113496275743 8557.24731
4.55091921409e-05 8561.13953
-0.00214493065673 8565.03052
-0.0057215326378 8568.92151
-0.00463604164641 8572.81067
-0.00161125550021 8576.70105
-0.00494408784495 8580.5896
-0.00384918957246 8584.47754
-0.00861733371863 8588.36609
-0.00163648408825 8592.25281
-0.00474504457776 8596.13892
-0.00561754739232 8600.02502
-0.00052159448954 8603.91052
-0.00195392621726 8607.79541
-0.00483812888167 8611.67969
-0.00370628731442 8615.56335
-0.00227306054502 8619.44702
-0.0046173993179 8623.32947
-0.00903780515826 8627.21069
-0.01084982355 8631.09253
-0.0111988060689 8634.97314
-0.00470770479431 8638.85376
-0.0149024685381 8642.73315
-0.00746056721928 8646.61255
-0.0093126261266 8650.49072
-0.00207365209686 8654.3689
-0.00696755699272 8658.24707
0.0080176634062 8662.1228
-0.0119757385035 8665.99915
-0.00490491003325 8669.87488
5.18660993506e-05 8673.75061
-0.00213772221739 8677.62451
-0.00529426114875 8681.49841
-0.00658765597591 8685.3717
0.00068855331607 8689.24438
-0.000586026400401 8693.11707
0.00262545211674 8696.98853
0.00716750639758 8700.85938
0.00330844741439 8704.72961
-0.00223827387514 8708.59985
-0.00620845440054 8712.46887
-0.00525110700564 8716.33789
-0.00695221612236 8720.20569
-0.00195790106747 8724.07349
-0.00568622438753 8727.94067
-0.00504205262973 8731.80725
-0.0126069630402 8735.67322
-0.00614175348376 8739.53796
-0.00861135081643 8743.40332
-0.00901879321484 8747.26624
-0.000292722686836 8751.13037
0.00429984540006 8754.99329
-0.00812425929497 8758.85559
0.00399215773582 8762.71729
-0.00856818613324 8766.57898
-0.0104094810446 8770.44006
-0.00319839320679 8774.29932
0.00405224272801 8778.15918
0.00696825138348 8782.01782
-0.00176085555417 8785.87585
-0.0046821607872 8789.73389
-0.00468798722865 8793.5907
6.09474832046e-05 8797.44751
0.00116013779273 8801.3031
0.000428463650158 8805.1593
-0.00399190291532 8809.01367
0.00708525892262 8812.86804
-0.00179583422348 8816.7218
-0.00815761180929 8820.57434
-0.0044457686535 8824.42749
-0.00258252330191 8828.27942
-0.00107726483293 8832.13013
0.00426973383961 8835.98145
-0.00262846482099 8839.83154
-0.00766995657174 8843.68042
-0.00692745150644 8847.53052
-0.00968635215741 8851.37817
-0.00815391361665 8855.22644
-0.00857278494625 8859.07349
-0.00505347904559 8862.92053
-0.00941668222795 8866.76636
-0.000726451904083 8870.61157
-0.00908493259082 8874.4574
0.0052557972909 8878.30078
-0.00274062689128 8882.14539
-0.00235008185749 8885.98816
-0.000741931960774 8889.83093
-0.00481172516662 8893.67249
0.00782288330793 8897.51465
-0.00198200821533 8901.35498
0.00130342096106 8905.19531
0.00048199320222 8909.03503
-0.00739585549508 8912.87415
-0.00492277834432 8916.71326
-0.00619021633105 8920.55054
-0.0108154322399 8924.38843
-0.0121079344476 8928.2251
-0.0125657251554 8932.06116
-0.0164108306366 8935.89661
-0.00374304073419 8939.73206
-0.00801134192919 8943.56628
-0.00676212185093 8947.3999
-0.00722195951668 8951.23352
-0.00596449647648 8955.06592
-0.00686525479677 8958.89832
-0.00777995028705 8962.72949
-0.000804775436808 8966.56067
-0.0154075107219 8970.39063
-0.00927857593056 8974.22058
0.00231672188403 8978.04993
0.0158749577761 8981.87866
-0.00993971781798 8985.70618
-0.000840193737115 8989.53369
7.68917927932e-05 8993.36121
0.00379178908243 8997.18689
0.00801740131691 9001.01257
0.00195748935007 9004.83704
-0.0126799437191 9008.66211
-0.0151150144265 9012.48596
-0.00659329236542 9016.3092
-0.0171491462931 9020.13184
-0.0123984343931 9023.95386
-0.00328626560536 9027.77588
0.00152530632395 9031.59668
0.00586606278385 9035.41687
-0.0105398839423 9039.23645
0.015027655788 9043.05603
-0.0105326525794 9046.875
-0.00714684495912 9050.69275
-0.00617349502542 9054.5105
-0.0186553172637 9058.32642
-0.00423107702542 9062.14294
-0.0066090474889 9065.95825
0.00198376142714 9069.77417
-0.0136880225175 9073.58826
-0.0230961918446 9077.40234
-0.0258127551404 9081.21582
-0.0120864565463 9085.02869
0.000542109680761 9088.84033
0.000999670793052 9092.65198
-0.0081681604266 9096.46301
-0.00628282501499 9100.27344
-0.0102814906736 9104.08325
-0.000817707138548 9107.89246
0.00758438017413 9111.70105
-0.00080313522757 9115.50903
-0.00774940762441 9119.31641
-0.0124356573538 9123.12317
-0.00463859893607 9126.92932
-0.0105740590437 9130.73547
-0.0016237312563 9134.53979
-0.00372814221341 9138.34473
-0.000350713897423 9142.14783
-0.0100165209429 9145.95154
-0.00748553005136 9149.75464
0.00468161747903 9153.55652
-0.00118800386724 9157.3584
-0.00412409165131 9161.15845
0.0004893599652 9164.95972
-0.0222011410002 9168.75854
0.000490225674653 9172.55859
-0.00540358098742 9176.3562
0.00386828154814 9180.15503
-0.0122249977692 9183.95203
-0.0114381677249 9187.74902
-0.000357578625065 9191.5448
-0.00512439316571 9195.34058
-0.010874159673 9199.13574
-0.0154496277093 9202.92969
-0.00442110273707 9206.72363
-0.000836881399241 9210.51636
-0.010598072946 9214.30969
-0.00841578274585 9218.10181
-0.00903865242167 9221.89331
-0.0223791276527 9225.6842
-0.0172832379077 9229.47388
-0.014027441362 9233.26416
-0.000937596756977 9237.05261
-0.0128939024682 9240.84106
-0.0252021798486 9244.62891
-0.0127243232226 9248.41675
-0.0112719745257 9252.20337
-0.0147121270745 9255.98938
-0.0132364777752 9259.77478
-0.0117181321114 9263.55957
-0.00218271915998 9267.34436
-0.0062468993509 9271.12732
0.00593280045521 9274.91089
-0.000492446545375 9278.69324
-0.0154620784893 9282.47559
-0.00777440670433 9286.25671
0.0105236606307 9290.03723
-0.00486636348793 9293.81775
-0.0219393728537 9297.59705
-0.0184091859025 9301.37634
-0.00636706513179 9305.15381
-0.0143587593335 9308.9325
-0.00456642467716 9312.70935
-0.00192655757841 9316.4856
-0.0144386457622 9320.26123
-0.0246373761435 9324.03687
-0.00421279152479 9327.8125
0.0112026190961 9331.5863
-0.00668978813714 9335.36011
-0.0130876765169 9339.13208
-0.0182536807043 9342.90527
-0.0237394318211 9346.67664
-0.00240471460664 9350.448
-0.00949917061285 9354.21814
-0.0143624079989 9357.98889
-0.0553208809225 9361.75842
-0.0163942149168 9365.52673
-0.0250954569427 9369.29504
-0.0218500446738 9373.06274
-0.0412077107247 9376.83044
-0.0246770083124 9380.5957
-0.0467352716481 9384.36218
-0.0119568204819 9388.12744
-0.0212113351021 9391.89148
-0.0167357698086 9395.65613
-0.0307854735679 9399.41956
-0.037343358687 9403.18237
0.0131343865615 9406.94458
-0.0410474897834 9410.70557
-0.0421298412805 9414.46655
-0.0198878531191 9418.22693
-0.00448562319765 9421.98669
-0.022329715872 9425.74646
-0.0144979046292 9429.50562
-0.0396926793654 9433.26294
0.0188057470313 9437.02026
-0.0116232392452 9440.77698
-0.0271379791588 9444.53369
-0.0255633045588 9448.28918
-0.0498918524924 9452.04468
-0.00491093875522 9455.79834
-0.0274761226695 9459.55261
-0.0118530843893 9463.30627
-0.0430372353101 9467.05811
-0.0239143869053 9470.81055
-0.00315846665909 9474.56177
-0.00829317022438 9478.31238
0.0071116624565 9482.06238
-0.00650457113327 9485.81238
-0.025001039903 9489.56116
-0.0047369422345 9493.30933
-0.0577723526715 9497.05811
-0.0457230754393 9500.80505
-0.0208643872481 9504.55139
-0.0399596441922 9508.29773
0.00662748854328 9512.04346
-0.0107504313796 9515.78735
-0.0417575583688 9519.53186
-0.0305138342801 9523.27515
-0.0514956512614 9527.01843
0.0107825674258 9530.76172
-0.0623680587557 9534.50195
-0.0337054902188 9538.24341
-0.0114587152338 9541.98486
-0.00556256365337 9545.72449
-0.0632077294371 9549.4635
-0.0327031613678 9553.20251
-0.00972938122335 9556.94092
-0.0153510780657 9560.67871
0.0157500689208 9564.41589
-0.00398349445567 9568.15125
-0.0193987786405 9571.88721
-0.0431639875275 9575.62256
-0.024925223166 9579.3573
0.00442142813003 9583.09021
-0.0235162088877 9586.82373
-0.0375201312221 9590.55664
0.0212114376594 9594.28955
-0.0334023159371 9598.02063
-0.0250211250467 9601.7511
-0.0784785139576 9605.48157
-0.00538540786346 9609.21143
-0.00960204881952 9612.94128
-0.0166249000303 9616.66809
-0.0166146132854 9620.39612
0.00163633682143 9624.12415
-0.0348245798108 9627.85095
-0.0404189401869 9631.57715
-0.0235911144349 9635.30151
-0.0109823746573 9639.02649
-0.00678424017366 9642.75146
-0.0715521045335 9646.47522
-0.0152718459289 9650.19714
-0.0153134188483 9653.92029
-0.0224480869486 9657.6416
-0.0353150778295 9661.36292
-0.0197190878536 9665.08423
0.0116620772087 9668.80371
-0.0570410569403 9672.52319
-0.0241240655993 9676.24207
-0.0227083360713 9679.96094
-0.00406397805728 9683.67737
-0.00693314266069 9687.39441
-0.0428063340041 9691.11084
-0.0370483280863 9694.82666
-0.0542435246314 9698.54248
-0.0456102949748 9702.25586
0.00882412861306 9705.96985
-0.0212288174959 9709.68323
0.040275473087 9713.39661
-0.00119295478507 9717.10754
0.0303206724839 9720.81909
-0.0342385746846 9724.53064
-0.0400994028109 9728.24097
-0.0228886388442 9731.94946
0.00459641454223 9735.65918
0.019207217744 9739.36768
-0.0247141272354 9743.07556
-0.0086155203449 9746.78284
-0.0294909113936 9750.48828
-0.0162113344102 9754.19495
-0.0570190922262 9757.90039
0.00176820091801 9761.60522
-0.0516388275123 9765.30884
-0.0519528388474 9769.01245
-0.00128624259045 9772.71606
-0.00750215987624 9776.41846
-0.0153453235636 9780.12024
-0.0169911867493 9783.82019
0.00498885091704 9787.52136
0.0303234798948 9791.22131
0.00503373681848 9794.92065
0.00665198549764 9798.61877
-0.0189805832333 9802.31689
-0.0126200455316 9806.0144
-0.00620450846318 9809.71191
-0.0241361069639 9813.4082
0.00517894291705 9817.10266
-0.0425273438029 9820.79773
-0.0510905253911 9824.4928
-0.0147305866492 9828.18604
-0.0736825672316 9831.87866
-0.0369607419058 9835.57129
-0.0560231751526 9839.26331
-0.0306542538716 9842.95471
-0.0534192165815 9846.64612
-0.0119206533273 9850.33569
-0.0207927941793 9854.02527
-0.0386355225576 9857.71362
-0.0335459147609 9861.40259
-0.00866306121031 9865.08911
0.014731013397 9868.77625
-0.0360476744809 9872.46277
-0.00701792203372 9876.14929
0.011382147449 9879.83459
-0.0164614155216 9883.51807
-0.0222791409864 9887.20215
-0.0149090726899 9890.88623
-0.0131550928628 9894.56909
-0.0522823500722 9898.25012
0.0298626088558 9901.93115
-0.0335267181887 9905.61279
0.0043565830146 9909.29321
-0.0585329374229 9912.97302
-0.0528486512288 9916.651
0.00240144005802 9920.3302
0.0231145919309 9924.00818
-0.0475422508543 9927.68494
-0.0184738814979 9931.36047
-0.0374731813266 9935.03723
-0.0545402546697 9938.71277
0.0384990433956 9942.3877
-0.055067105778 9946.0614
-0.0382037362597 9949.7345
-0.0685807581377 9953.40759
-0.0472850188732 9957.08008
-0.0715191793699 9960.75195
-0.104806037044 9964.422
-0.026051688247 9968.09265
0.000368832653389 9971.7627
-0.0642102403138 9975.43152
-0.0242538443702 9979.10095
-0.00187641631008 9982.76733
-0.0494897083743 9986.43494
-0.0338423467169 9990.10193
-0.0179977365225 9993.76831
-0.0598385968199 9997.43286
0.0423952402952 10001.09802
-0.0161005024605 10004.76257
-0.056726250795 10008.42651
-0.0573219932996 10012.08923
-0.0312030670643 10015.75134
0.0397455155678 10019.41284
-0.00954342090248 10023.07434
-0.00714182975234 10026.73523
0.000425313958821 10030.39429
-0.0616075761252 10034.05334
-0.0178669298563 10037.71179
-0.0656795135154 10041.37024
0.00578563917154 10045.02808
-0.0912472451284 10048.68408
-0.00769862688547 10052.34009
-0.0132277053443 10055.99609
-0.0711792962505 10059.65149
0.00323118482738 10063.30444
0.0477865048529 10066.95862
-0.0555511582515 10070.61218
-0.0699575086104 10074.26453
-0.115784516925 10077.91626
-0.00523045282922 10081.56677
-0.0167759872062 10085.21729
-0.0720909062263 10088.8678
-0.0434892166805 10092.51709
-0.0617774136411 10096.16577
-0.0175055186788 10099.81384
-0.0694544355563 10103.4613
-0.0642534255601 10107.10754
-0.0808336036643 10110.75439
0.00370191740074 10114.39941
0.000536509220154 10118.04443
0.0136032958679 10121.68884
0.0667125208544 10125.33325
-0.0597963938744 10128.97522
-0.01978711345 10132.6178
-0.0234343429804 10136.26038
-0.00635055806214 10139.90112
-0.0204016371268 10143.54187
-0.00294127070465 10147.1814
-0.113462921555 10150.82153
-0.0857397441096 10154.46045
-0.0538839258776 10158.09937
-0.014068790276 10161.73523
-0.0327834745989 10165.3717
0.0193916713905 10169.00879
-0.0373546042742 10172.64404
-0.0185753022882 10176.27991
-0.108248752759 10179.91333
-0.0583056060445 10183.54675
-0.0946608700532 10187.18018
-0.0674812689339 10190.81299
-0.0802012605156 10194.44397
-0.0522978610044 10198.07495
-0.0732108782028 10201.70593
-0.0819803328967 10205.33691
-0.0700323245764 10208.96606
-0.112389223323 10212.5946
-0.146906869843 10216.22253
-0.09271930032 10219.85046
-0.13628398756 10223.47778
-0.219627630042 10227.10327
-0.156285792826 10230.72876
-0.237427902516 10234.35364
-0.0572196843921 10237.97852
-0.0624597611011 10241.60278
0.0144818574209 10245.22461
0.0378490288253 10248.84766
-0.0180102427373 10252.46948
0.0769252761662 10256.09131
0.000803292305249 10259.71069
0.0495841485019 10263.3313
-0.0435871189113 10266.94946
0.0207739780407 10270.56885
0.0662990564466 10274.18823
0.026274085787 10277.80396
-0.178973190949 10281.4209
0.0371362393358 10285.03784
-0.0462223635546 10288.65479
-0.173555720235 10292.26807
0.0275596224289 10295.88135
-0.0530055824688 10299.49707
0.0444698363007 10303.10913
-0.0376266185845 10306.72241
0.00649472710868 10310.33325
-0.0891784591067 10313.94531
0.0294223828566 10317.55493
-0.0681885543737 10321.16577
0.00679798167489 10324.77417
0.0834576715535 10328.38257
-0.23157587389 10331.99097
-0.282387247835 10335.59937
-0.126908286604 10339.20654
-0.103644841507 10342.81128
0.0383674062878 10346.41724
-0.194154224809 10350.02197
-0.151807160313 10353.62671
-0.0375920715961 10357.229
-0.345090032021 10360.83252
-0.203875670588 10364.43481
0.0546476953157 10368.03711
-0.365237680845 10371.6394
0.00800075974007 10375.23804
-0.318093860865 10378.83789
-0.0548496356683 10382.43774
-0.0835393026311 10386.03638
0.0224893804997 10389.63257
0.0582429895457 10393.2312
0.029783069885 10396.82861
