0.0 1883.01102
0.0 1887.64923
-0.0 1892.28699
-0.0 1896.92459
-0.0 1901.56158
-0.0 1906.19812
0.0 1910.83435
-0.0 1915.47043
-0.0 1920.1059
0.0 1924.74091
0.0 1929.37561
-0.0 1934.01001
0.0 1938.6441
0.0 1943.27759
0.0 1947.91077
-0.0 1952.54349
0.0 1957.17575
0.0 1961.80786
0.0 1966.43951
0.0 1971.07071
-0.0 1975.70145
-0.0 1980.33203
-0.0 1984.96216
0.0 1989.59167
0.0 1994.22089
0.0 1998.84979
-0.0 2003.47855
0.0 2008.10654
-0.0 2012.73422
-0.0 2017.3616
-0.0 2021.98853
-0.0 2026.61514
-0.0 2031.2413
-0.0 2035.867
-0.0 2040.4924
-0.0 2045.11734
-0.0 2049.74197
0.0 2054.36615
0.0 2058.99002
-0.0 2063.61343
0.0 2068.23654
0.0 2072.85919
-0.0 2077.48123
0.0 2082.10327
-0.0 2086.72485
-0.0 2091.34583
0.0 2095.96649
-0.0 2100.5867
-0.0 2105.20676
0.0 2109.82635
0.0 2114.44534
0.0 2119.06403
-0.0 2123.6824
0.0 2128.30048
0.0 2132.91779
0.0 2137.53494
-0.0 2142.15179
0.0 2146.76819
-0.0 2151.38412
-0.0 2155.9996
-0.0 2160.61493
-0.0 2165.22949
-0.0 2169.84406
0.0 2174.45801
-0.0 2179.07166
-0.0 2183.68484
0.0 2188.29773
-0.0 2192.91031
-0.0 2197.52228
-0.0 2202.13379
-0.0 2206.745
-0.0 2211.35574
-0.0 2215.96634
-0.0 2220.57648
-0.0 2225.186
-0.0 2229.79553
-0.0 2234.4043
-0.0 2239.01276
0.0 2243.62076
-0.0 2248.22845
-0.0 2252.83569
-0.0 2257.44278
0.0 2262.0491
-0.0 2266.65512
0.0 2271.26114
-0.0 2275.86639
-0.0 2280.47119
-0.0 2285.07568
-0.0 2289.67972
-0.0 2294.28345
0.0 2298.88687
-0.0 2303.48984
-0.0 2308.09219
-0.0 2312.6944
-0.0 2317.29614
-0.0 2321.89758
-0.0 2326.49841
-0.0 2331.09894
-0.0 2335.69901
-0.0 2340.29892
-0.0 2344.89822
-0.0 2349.49707
0.0 2354.09561
-0.0 2358.69385
-0.0 2363.29163
-0.0 2367.88895
-0.0 2372.48581
-0.0 2377.08237
-0.0 2381.67847
-0.0 2386.27441
-0.0 2390.8696
-0.0 2395.46463
-0.0 2400.0592
-0.0 2404.65332
-0.0 2409.24698
-0.0 2413.84033
-0.0 2418.43338
-0.0 2423.02597
-0.0 2427.6181
0.0 2432.20993
-0.0 2436.80115
-0.0 2441.39221
-0.0 2445.98282
0.0 2450.57297
-0.0 2455.16266
-0.0 2459.75189
0.0 2464.34082
0.0 2468.92944
-0.0 2473.51761
0.0 2478.10516
0.0 2482.69272
-0.0 2487.27951
-0.0 2491.866
-0.0 2496.45218
0.0 2501.0379
-0.0 2505.62317
-0.0 2510.20813
-0.0 2514.79279
-0.0 2519.37668
-0.0 2523.96057
0.0 2528.54385
-0.0 2533.12683
0.0 2537.7092
-0.0 2542.29126
-0.0 2546.87302
-0.0 2551.45432
-0.0 2556.035
-0.0 2560.61584
-0.0 2565.19592
-0.0 2569.7757
-0.0 2574.35455
-0.0 2578.93372
-0.0 2583.51196
0.0 2588.0899
-0.0 2592.66754
-0.0 2597.24487
-0.0 2601.8219
0.0 2606.39832
-0.0 2610.97443
0.0 2615.54993
-0.0 2620.12512
-0.0 2624.69971
0.0 2629.27429
0.0 2633.84827
0.0 2638.42194
-0.0 2642.9953
-0.0 2647.56805
-0.0 2652.1405
0.0 2656.71234
0.0 2661.28387
-0.0 2665.8551
-0.0 2670.42572
-0.0 2674.99573
-0.0 2679.56604
-0.0 2684.13574
-0.0 2688.70483
0.0 2693.27362
0.0 2697.8418
-0.0 2702.40936
-0.0 2706.97693
-0.0 2711.54419
-0.0 2716.11053
-0.0 2720.67688
-0.0 2725.24292
-0.0 2729.80835
-0.0 2734.37347
-0.0 2738.93799
-0.0 2743.5025
-0.0 2748.0661
-0.0 2752.62939
0.0 2757.19238
-0.0 2761.75507
-0.0 2766.31714
-0.0 2770.87891
-0.0 2775.44067
0.0 2780.00122
0.0 2784.56177
-0.0 2789.12201
-0.0 2793.68164
-0.0 2798.24097
-0.0 2802.79968
-0.0 2807.3584
-0.0 2811.9162
-0.0 2816.474
0.0 2821.03149
0.0 2825.58838
-0.0 2830.14465
-0.0 2834.70062
0.0 2839.25629
-0.0 2843.81134
-0.0 2848.36639
-0.0 2852.92053
-0.0 2857.47467
-0.0 2862.0282
0.0 2866.58142
-0.0 2871.13434
-0.0 2875.68634
-0.0 2880.23804
-0.0 2884.78973
-0.0 2889.34113
-0.0 2893.8913
-0.0 2898.44208
-0.0 2902.99164
0.0 2907.54089
-0.0 2912.08984
-0.0 2916.63879
-0.0 2921.18683
-0.0 2925.73456
0.0 2930.28198
-0.0 2934.82849
0.0 2939.37561
-0.0 2943.92151
0.0 2948.46741
-0.0 2953.01239
-0.0 2957.55737
0.0 2962.10175
-0.0 2966.64581
0.0 2971.18958
-0.0 2975.73242
-0.0 2980.27557
-0.0 2984.81812
0.0 2989.35974
-0.0 2993.90137
-0.0 2998.44238
0.00244718569179 3002.9834
-0.00939999246886 3007.5235
-0.00322716657507 3012.0636
0.00694087900653 3016.60278
0.00116486737452 3021.14197
-0.00307775669323 3025.68054
-0.00370145963305 3030.21881
-0.00463387359201 3034.75677
-0.000840568178172 3039.29413
-0.00803981676675 3043.83118
-0.00477488592862 3048.36761
0.00216348557962 3052.90375
-0.0132142283598 3057.43958
0.00213943699281 3061.9751
-0.000836040908833 3066.5097
-0.00169002883383 3071.04431
-0.00874492973518 3075.578
-0.0115903625138 3080.11169
0.00139488766172 3084.64508
0.00848493729588 3089.17755
-0.0072041133732 3093.71063
-0.000721811244563 3098.24219
-0.00600058285227 3102.77374
0.00254124137028 3107.30499
-0.00145776061017 3111.83563
-0.00271297842205 3116.36597
-0.00599547607157 3120.89569
0.00307211490212 3125.42511
-0.00122664185146 3129.95422
0.00435792282818 3134.48273
-0.00503229679413 3139.01093
0.000293533653875 3143.53882
-0.00120944484769 3148.0658
-0.00267760071413 3152.59308
-0.00677978352957 3157.11975
-0.00666801333212 3161.64581
-0.00254968434678 3166.17126
-0.0034303692091 3170.69672
-0.00291870041443 3175.22156
-0.00332308929239 3179.74579
-0.00704164450502 3184.27002
-0.00653013986958 3188.79333
0.00393976862828 3193.31665
0.0017611014907 3197.83936
-0.00297524323264 3202.36176
0.00432326020788 3206.88354
0.00346179918957 3211.40503
-0.00424882376646 3215.92651
-0.00596030676044 3220.44647
-0.00317382231412 3224.96704
0.000462237097095 3229.48639
-0.00508807251222 3234.00604
-0.00785029791902 3238.52509
-0.00570375429122 3243.04352
-0.00250690387642 3247.56165
-0.00249686393151 3252.07916
-0.00731555668883 3256.59668
-0.00956877666894 3261.11328
0.00148278355511 3265.62988
0.00413628164578 3270.14557
-0.00301542937179 3274.66156
-0.00177576973332 3279.17664
-0.003144315712 3283.6911
-0.00271136225414 3288.20557
-0.00112782113542 3292.71942
-0.00263597683248 3297.23297
-0.00409935088937 3301.74561
-0.00237279295642 3306.25854
-0.00142595979519 3310.77026
-0.00642236983876 3315.28229
0.00108618719674 3319.7937
-0.00240102429191 3324.3045
0.00344276074958 3328.815
-0.00266595089064 3333.32489
0.00301286842318 3337.83478
-0.00521784126155 3342.34406
2.64865769895e-05 3346.85303
0.000666488352095 3351.36078
-0.000608118016071 3355.86914
-0.00578912292259 3360.37659
0.000492344318175 3364.88342
0.00280066546475 3369.39026
-0.000739222955005 3373.89648
-0.0039124205888 3378.4024
0.00242026720728 3382.90771
-0.00145754304976 3387.41272
-0.00319954690414 3391.91681
-0.00243773983938 3396.4212
-0.00756574483929 3400.92468
-0.000825166548372 3405.42816
-0.00319329836491 3409.93103
-0.000945234028159 3414.43329
0.000569553647047 3418.93555
0.000563839008051 3423.43689
-0.00145358251054 3427.93793
0.0014823095907 3432.43866
-0.00103079062231 3436.93878
-0.00336596166273 3441.4389
-0.00191260725002 3445.93842
-0.000744273287662 3450.43732
-0.000736154187224 3454.93591
-0.00147650936276 3459.43359
0.000266792874868 3463.93158
-0.00229779709476 3468.42896
-0.00154860529361 3472.92542
-0.00105474857587 3477.42218
-0.000335132687904 3481.91803
-0.000917299762023 3486.41357
-0.000909185702429 3490.90881
0.00059392505424 3495.40314
-0.000551946807446 3499.89777
-9.4691537697e-05 3504.39148
-0.00177935652336 3508.88489
0.000129624641509 3513.37799
-0.00263364890112 3517.87048
-0.00107636860724 3522.36267
-0.00214937014934 3526.85425
-0.0023408277956 3531.34552
0.000864668510312 3535.83649
-0.00207747723291 3540.32684
-0.000189937822517 3544.81659
-0.00141422811433 3549.30634
-0.000488393837578 3553.79517
-0.00248052282193 3558.2843
-0.00245363393271 3562.77222
-0.00145042773074 3567.26013
-0.00046816406023 3571.74774
-0.00190328234518 3576.23444
-0.00112555716413 3580.72113
-0.000361624227591 3585.20721
-0.000638937884959 3589.69299
0.000663510343253 3594.17786
-0.00458012078115 3598.66302
0.00128786527247 3603.14697
-0.00106648519798 3607.63123
-0.000699006409654 3612.11456
-0.00175184204337 3616.5976
-0.0026082434691 3621.08032
-7.23041586175e-05 3625.56244
0.000356145434086 3630.04456
-0.00125635522105 3634.52576
1.37116979948e-05 3639.00696
0.000179423626368 3643.48663
-0.000643481811697 3647.96722
0.000501004070884 3652.4469
-0.00167824519487 3656.92596
-0.00222108040475 3661.40472
-0.00101432815082 3665.88287
-0.000378590323816 3670.36102
-0.00161685840844 3674.83826
-0.0022181098123 3679.31549
-0.000673467336559 3683.79181
-0.000592100501694 3688.26843
-0.000736954299645 3692.74384
-0.00177148057628 3697.21924
-0.00109331782997 3701.69403
-0.00181566843891 3706.16821
-0.00151074950034 3710.6427
-0.00193027669871 3715.11566
-0.00148640455069 3719.58923
-0.001970002506 3724.06158
0.000151787880922 3728.53424
-0.000475806276133 3733.00568
-0.00136979470876 3737.47711
-0.000810578901404 3741.94794
-0.00209531930846 3746.41846
-0.00174088310067 3750.88898
-0.000656994789298 3755.35828
-0.000651358258113 3759.82758
-0.000711283221994 3764.29596
0.000660819641777 3768.76465
-0.000891766725569 3773.23242
-0.000117218920611 3777.69989
0.000768903548898 3782.16675
-0.000866966881902 3786.6333
-0.00079697493493 3791.09985
-0.000605325897647 3795.56519
-0.000783438913187 3800.03052
-0.000413941571201 3804.49524
-0.000952143442649 3808.95996
-0.00220090115225 3813.42377
-0.00117740200506 3817.88727
-0.000403311286542 3822.35046
-0.00104673416048 3826.81274
-4.88068761572e-05 3831.27533
-0.00173336743586 3835.73669
9.45486794364e-06 3840.19836
-0.00154376839257 3844.65912
-0.000677488111588 3849.11957
-4.76455017295e-05 3853.57971
0.00108664313486 3858.03925
-0.000442860945704 3862.49847
-0.000835600332785 3866.95679
-0.00105760123036 3871.41541
-0.00296037447862 3875.87311
0.000623081840273 3880.33051
0.000120514368809 3884.78729
-0.000213280331412 3889.24408
0.00100745486823 3893.69995
0.000285981035213 3898.15552
0.00161170774714 3902.61078
-0.0005984227822 3907.06543
0.0005050838724 3911.52008
0.000504377529136 3915.97351
0.000173925602479 3920.42725
0.00247773403993 3924.87976
0.000612184699172 3929.33289
0.00258161445804 3933.78479
0.00301588738405 3938.23639
0.00257631573379 3942.68768
0.00290073480868 3947.13837
0.00463877820297 3951.58905
0.00381862417596 3956.03851
0.00278224135493 3960.48798
0.00543397669481 3964.93683
0.00515537723714 3969.38568
0.00547038657736 3973.83392
0.005082937018 3978.28156
0.0074360852587 3982.72888
0.00618750943484 3987.1756
0.00617354640562 3991.62201
0.00695974353344 3996.06781
0.00534702908443 4000.51361
0.00825638592149 4004.95819
0.00892790159049 4009.40308
0.00912239565016 4013.84705
0.00958068473472 4018.29102
0.0100381674404 4022.73438
0.0129071576536 4027.17682
0.0183184195484 4031.61926
0.0442579527991 4036.0611
0.0858592155028 4040.50293
0.135254049784 4044.94385
0.145556996716 4049.38446
0.128761056663 4053.82477
0.0991435447895 4058.26447
0.0752942209811 4062.70386
0.0526969086349 4067.14233
0.035185092893 4071.58081
0.0310784323354 4076.01868
0.0302450335189 4080.45624
0.0268519302054 4084.89319
0.0246345107533 4089.33014
0.0235441249621 4093.76617
0.0234784406397 4098.2019
0.019871196603 4102.63702
0.0178527366949 4107.07184
0.0197867258392 4111.50635
0.0198182816828 4115.94025
0.0201543229558 4120.37384
0.0207932002658 4124.80682
0.0199480185586 4129.23981
0.0215463622298 4133.67126
0.0221187454927 4138.10333
0.0213670784545 4142.53479
0.0236994031935 4146.96533
0.0225873497582 4151.39587
0.0220296816064 4155.82581
0.0241307133614 4160.25543
0.0231646722595 4164.68414
0.0229984669693 4169.11285
0.0228300459739 4173.54065
0.0242957282872 4177.96875
0.0261430456981 4182.39594
0.0244844920432 4186.82281
0.0243070475133 4191.24908
0.025206938811 4195.67505
0.0263945985864 4200.10071
0.0259278572448 4204.52545
0.0250325284566 4208.9502
0.0282020911753 4213.37372
0.02933989599 4217.79785
0.0276502965868 4222.22107
0.0286587303094 4226.64368
0.0300070968787 4231.06628
0.0282085390832 4235.48798
0.0293813345947 4239.90967
0.0310360988455 4244.33044
0.0317906608563 4248.75092
0.0325513198192 4253.17078
0.0328895652608 4257.59064
0.0324240776728 4262.00989
0.0350101829579 4266.42853
0.0335549263056 4270.84686
0.0334826029392 4275.26459
0.0341270403893 4279.68201
0.0337691549809 4284.09912
0.0355081369087 4288.51563
0.035713876819 4292.93121
0.0364351297383 4297.34711
0.0376204819686 4301.76239
0.0360734138025 4306.17706
0.0366568287392 4310.59113
0.0361773921333 4315.00488
0.0393388287976 4319.41833
0.0388779446257 4323.83087
0.0387395281398 4328.24341
0.0411819890655 4332.65533
0.0455218455442 4337.06726
0.05442473108 4341.47827
0.100841012188 4345.88867
0.242051394335 4350.29877
0.45546814685 4354.70825
0.572701523454 4359.11804
0.574579667382 4363.52661
0.448649551211 4367.93518
0.344733481286 4372.34283
0.281400734958 4376.75049
0.190793843851 4381.15723
0.109034975912 4385.56396
0.0719025425012 4389.9704
0.0534382742194 4394.37561
0.0494908170083 4398.78113
0.0481079771212 4403.18573
0.046777497338 4407.59033
0.0483885015201 4411.99341
0.0457469122788 4416.39709
0.0472772305843 4420.79956
0.0435725144043 4425.20264
0.0489817396528 4429.6051
0.0481626240768 4434.00604
0.0470524170957 4438.40759
0.0495237459933 4442.80762
0.0478226843686 4447.20825
0.0479072268994 4451.60767
0.0490284836744 4456.00739
0.0487167136066 4460.40558
0.0487440164074 4464.80438
0.0497508527574 4469.20258
0.0503152399678 4473.59955
0.0524471158566 4477.99713
0.0508156323708 4482.39319
0.0522866145574 4486.78955
0.0512090926594 4491.185
0.0506446971301 4495.58014
0.0535777029623 4499.97498
0.0522220185527 4504.36951
0.0553520606049 4508.76343
0.0547630318536 4513.15674
0.052394403078 4517.54974
0.0561854143446 4521.94183
0.0552895364242 4526.33392
0.054487345864 4530.7251
0.0545628683683 4535.11688
0.0556359594651 4539.50684
0.0563048962487 4543.8974
0.0540258945886 4548.28735
0.0570972205559 4552.67639
0.053818153838 4557.06543
0.0555522465625 4561.45325
0.057901856516 4565.84137
0.0556268158413 4570.22858
0.0544118576794 4574.61578
0.0561746725449 4579.00208
0.0585285084496 4583.38867
0.0573087467954 4587.77405
0.0602529542412 4592.15912
0.058935750651 4596.54388
0.058439716326 4600.92773
0.0563394569142 4605.31189
0.0592786866495 4609.69513
0.0590021301869 4614.07806
0.0614324854572 4618.46008
0.0574525906483 4622.84241
0.0572153855538 4627.22351
0.0581607318691 4631.60461
0.0604927864136 4635.98541
0.0598074308705 4640.3653
0.061459067373 4644.74518
0.0612817741511 4649.12384
0.0596591198405 4653.50281
0.0611445767998 4657.88086
0.0621352477729 4662.25891
0.0606564659931 4666.63605
0.0615177578705 4671.01318
0.0605707825213 4675.39001
0.0615941360026 4679.76563
0.059909596855 4684.14124
0.0620935415103 4688.51593
0.0647208425539 4692.89063
0.0635872929292 4697.2644
0.0622941950302 4701.63849
0.0636963443737 4706.01135
0.064944234254 4710.38422
0.0636762773875 4714.75677
0.0651890204819 4719.12811
0.0646111458297 4723.50006
0.0640507013079 4727.87048
0.064297414205 4732.24121
0.064333067713 4736.61072
0.0674711030083 4740.98053
0.0665487730605 4745.34943
0.0657777919831 4749.71802
0.0669930575215 4754.0863
0.0656820520264 4758.45367
0.0657714100105 4762.82104
0.0675829550514 4767.1875
0.0673308890944 4771.55426
0.0663909601342 4775.91949
0.066247334139 4780.28503
0.0653301086101 4784.64966
0.0664308404693 4789.01428
0.0670494293011 4793.3786
0.065264556786 4797.7417
0.0662784400284 4802.1051
0.0676837650321 4806.46698
0.0658488929834 4810.82947
0.0684308551056 4815.19073
0.0680173101373 4819.552
0.0668853945214 4823.91266
0.0684555348749 4828.27301
0.0677386032832 4832.63306
0.0687085317043 4836.99188
0.0662982788189 4841.35101
0.0648471820995 4845.70923
0.0675224790398 4850.06744
0.0665581142268 4854.42413
0.0690433242183 4858.78174
0.0677106702088 4863.13782
0.0681998875867 4867.4939
0.0679619049674 4871.84998
0.0676352938472 4876.20453
0.068133512748 4880.55939
0.0669524901226 4884.91333
0.0681149592484 4889.26727
0.0652033970156 4893.6203
0.067432974628 4897.97302
0.0680803461284 4902.32513
0.0652349992938 4906.67755
0.0699001475219 4911.02905
0.0686147540833 4915.37964
0.0693736396055 4919.73022
0.0675609572693 4924.0799
0.0697531345105 4928.42957
0.0689084877482 4932.77832
0.0698381487933 4937.12738
0.0672304999474 4941.47491
0.0679771496321 4945.82275
0.0662352046469 4950.17029
0.0671672515437 4954.5166
0.0658546804096 4958.86292
0.068550493331 4963.20831
0.0663309470338 4967.55402
0.0676044184153 4971.8985
0.0680927793221 4976.24298
0.0662347682214 4980.58655
0.0664148044885 4984.93042
0.066544861444 4989.27368
0.0650837728959 4993.61572
0.0669236516546 4997.95807
0.0667931263592 5002.29919
0.0652306887252 5006.64063
0.066252946425 5010.98083
0.0649701953217 5015.32104
0.0659775165291 5019.66064
0.0660931599753 5023.99994
0.0660324352701 5028.33893
0.0656228019637 5032.677
0.0674724381127 5037.01477
0.0660972667789 5041.35193
0.0658346719553 5045.68909
0.0654126523007 5050.02502
0.0650794755931 5054.36127
0.0648410027549 5058.69629
0.0642767606421 5063.03162
0.0638023600467 5067.36603
0.0636071248329 5071.69983
0.0646344626294 5076.03363
0.0645563871936 5080.36621
0.0638722535414 5084.6994
0.0647355078346 5089.03107
0.0639895719761 5093.36304
0.0642281633263 5097.69379
0.0636960719727 5102.02484
0.0613541535337 5106.35529
0.0657609052124 5110.68481
0.0665282258534 5115.01434
0.0651188018043 5119.34265
0.0649538637305 5123.67126
0.0622209306449 5127.99927
0.0625400438328 5132.32605
0.0637160644238 5136.65344
0.0644402705352 5140.97961
0.0607619522664 5145.30579
0.0628153752497 5149.63135
0.063094323375 5153.95691
0.0629816809354 5158.28064
0.0639613421608 5162.60498
0.0627444181061 5166.92871
0.0609810195774 5171.25183
0.0626712914778 5175.57373
0.0613956067767 5179.89624
0.0618976593772 5184.21753
0.0622857305445 5188.53943
0.0613832356369 5192.86072
0.0625355344794 5197.18018
0.0622018234902 5201.50024
0.0617071481025 5205.81909
0.0627953237077 5210.13855
0.0613353936811 5214.45679
0.0614718698038 5218.77502
0.0611620734497 5223.09204
0.0625971005438 5227.40906
0.062319066975 5231.72546
0.0620801725466 5236.04187
0.0627077453715 5240.35767
0.0607038704718 5244.67224
0.0617999934117 5248.98682
0.0625697055813 5253.30078
0.0626591455709 5257.61475
0.0629735407586 5261.92749
0.0634935220663 5266.24023
0.0614186806268 5270.55237
0.0607311345482 5274.86389
0.061889551057 5279.17542
0.0625521361795 5283.48572
0.0618508087556 5287.79663
0.0632996757478 5292.10571
0.0627810311629 5296.41541
0.0637214611075 5300.72388
0.0622224477627 5305.03235
0.0615463656668 5309.34082
0.0625691092824 5313.64746
0.0626286573253 5317.95532
0.0618767882673 5322.26135
0.0623404760314 5326.56738
0.0626204036762 5330.8728
0.0635892968937 5335.17822
0.0632940884371 5339.48242
0.0630797920311 5343.78662
0.0637072876383 5348.09082
0.0618625946823 5352.39319
0.0634531437629 5356.69617
0.0634259727421 5360.99792
0.0636120821509 5365.29968
0.0644719776947 5369.60083
0.0663712168702 5373.90137
0.0638062718648 5378.2019
0.0654094214851 5382.50183
0.0659010263364 5386.80115
0.0654296690397 5391.09985
0.0636193381873 5395.39795
0.0665243632622 5399.69543
0.0654179889009 5403.99292
0.0660851849716 5408.28979
0.0670740236316 5412.58606
0.0684426255216 5416.88171
0.0704240697568 5421.17737
0.0683035025768 5425.47302
0.0706074988968 5429.76685
0.0724631286353 5434.06128
0.0732538975074 5438.35388
0.0728268014589 5442.64771
0.0779554560004 5446.9397
0.118409532329 5451.2323
0.257162243572 5455.52307
0.374248242887 5459.81506
0.431171761928 5464.10583
0.363886132221 5468.39539
0.26479814534 5472.68555
0.228631193312 5476.97449
0.219408135539 5481.26282
0.203826622641 5485.55054
0.164967583209 5489.83887
0.126734927913 5494.12598
0.098203253775 5498.41309
0.0860362133351 5502.69958
0.0790897449087 5506.98486
0.0807665157853 5511.27075
0.0795970515556 5515.55481
0.0770923575272 5519.83948
0.076539090617 5524.12292
0.0785200423608 5528.40698
0.0783154324491 5532.6886
0.0770314949411 5536.97205
0.0789367657616 5541.25366
0.0784682969536 5545.53467
0.078662126075 5549.81628
0.0791985720311 5554.09607
0.080293763782 5558.37646
0.0797844941521 5562.65564
0.0813003397615 5566.93481
0.0787997688177 5571.21338
0.0816130466002 5575.49133
0.0809744893254 5579.76929
0.0823238254487 5584.04602
0.0833736410124 5588.32275
0.0835025961358 5592.59888
0.0851901516641 5596.87439
0.0847364188694 5601.14929
0.0849509507884 5605.42419
0.0853496678417 5609.69788
0.0860755220357 5613.97156
0.0868022412524 5618.24524
0.085282809208 5622.5177
0.0873195236962 5626.79016
0.087624257706 5631.0614
0.088393905409 5635.33264
0.08701858783 5639.60327
0.0878982485531 5643.87329
0.0856611664326 5648.14331
0.0901667405255 5652.41272
0.0903937553845 5656.68213
0.0897139716547 5660.94971
0.0913574818975 5665.2179
0.0888140382382 5669.48425
0.0908882105958 5673.75183
0.0898672676547 5678.01819
0.0931629798927 5682.28394
0.090507205673 5686.54846
0.0936530722231 5690.81421
0.0912680641473 5695.07874
0.089968629672 5699.34265
0.0909127570831 5703.60596
0.0923465863057 5707.86865
0.0906236009899 5712.13074
0.0931924846895 5716.39282
0.0931260872242 5720.6543
0.094044283917 5724.91516
0.0927077306609 5729.17603
0.0932612712472 5733.43567
0.0923422594273 5737.69531
0.0934173057355 5741.95435
0.0924875608252 5746.21277
0.0950974852749 5750.47119
0.0946208329712 5754.72839
0.0964702090373 5758.9856
0.112357447948 5763.24158
0.13242395896 5767.49817
0.145545636402 5771.75293
0.140209481655 5776.0083
0.12547910159 5780.26306
0.135695924076 5784.51721
0.150669060987 5788.77136
0.158456159739 5793.02429
0.153704242109 5797.27661
0.134073638044 5801.52832
0.122341723347 5805.78064
0.116854066404 5810.03113
0.113002563087 5814.28223
0.110855941122 5818.53271
0.10543467308 5822.78198
0.100936453282 5827.03125
0.0981456217513 5831.2793
0.0985170695945 5835.52795
0.0952566191092 5839.77539
0.0943492545982 5844.02283
0.0954886470558 5848.26965
0.0941551199303 5852.51587
0.094431904003 5856.76208
0.0938321430483 5861.00647
0.0932196130852 5865.25208
0.0939907118304 5869.49524
0.0948419153901 5873.73962
0.0954932435885 5877.98218
0.09542143241 5882.22534
0.0927460444578 5886.46729
0.090438152804 5890.70984
0.092501612505 5894.95117
0.0932774798621 5899.19128
0.0923374504385 5903.43201
0.0909535778666 5907.67151
0.0914703284135 5911.91101
0.0922253663538 5916.1499
0.0912683541499 5920.38818
0.0898426519664 5924.62524
0.0910690724437 5928.86292
0.0895760361748 5933.10059
0.0871396902257 5937.33582
0.0879317249979 5941.57227
0.0889731792698 5945.8075
0.0867142559395 5950.04272
0.0874185672586 5954.27673
0.0868306636545 5958.51074
0.0882249153394 5962.74353
0.0846637411878 5966.97632
0.0848090919315 5971.20911
0.0852061228812 5975.44067
0.0838113640806 5979.67224
0.0844517253004 5983.9032
0.0848530524046 5988.13354
0.083766652814 5992.36328
0.082724902139 5996.59241
0.0819820313584 6000.82153
0.0823465231335 6005.05005
0.0799059190655 6009.27795
0.0812489184218 6013.50525
0.0791284912151 6017.73254
0.0803608921068 6021.95862
0.0781614328161 6026.18408
0.0807172633883 6030.40955
0.0786930369242 6034.6344
0.0774939828475 6038.85925
0.0763815343886 6043.0835
0.075736759721 6047.30652
0.0755659596434 6051.52893
0.0758738541506 6055.75195
0.074279391983 6059.97375
0.0755803586444 6064.19495
0.0758378273166 6068.41553
0.0708613549735 6072.63672
0.073319997174 6076.85608
0.0715812244628 6081.07605
0.0714182018922 6085.2948
0.070436177627 6089.51294
0.0702206275092 6093.73108
0.0701534142693 6097.948
0.0676832090372 6102.16553
0.0686502865594 6106.38123
0.0687042497853 6110.59753
0.0693845659088 6114.81262
0.0667567343499 6119.02832
0.0676437102321 6123.24219
0.0684833198971 6127.45605
0.0660298298965 6131.66931
0.0645502552374 6135.88196
0.0643752199988 6140.0946
0.0660006537658 6144.30664
0.0635072344377 6148.51807
0.0640591855121 6152.72827
0.0624677457069 6156.93909
0.065269785427 6161.14929
0.0625316665619 6165.35889
0.0621410077763 6169.56787
0.0627845382843 6173.77563
0.0605798065312 6177.9834
0.0602188000195 6182.19055
0.0601901167408 6186.39832
0.0591226986875 6190.60364
0.0594255996484 6194.81018
0.0582240553632 6199.01611
0.0582666644064 6203.22083
0.0575840253046 6207.42493
0.0568149090201 6211.62842
0.0556624490785 6215.83191
0.0570127452544 6220.03418
0.0565598918405 6224.23706
0.0568037216904 6228.43872
0.0550208204551 6232.64038
0.0552042063314 6236.84143
0.0528007676642 6241.04126
0.0537416719462 6245.2417
0.0513782628993 6249.44031
0.0514908832709 6253.64014
0.0514381737456 6257.83752
0.051408257393 6262.03552
0.0497376823642 6266.2323
0.0496183175376 6270.42969
0.0495557507294 6274.62585
0.049127608445 6278.82141
0.0473115659856 6283.01697
0.0473128227402 6287.2113
0.0470073431345 6291.40625
0.0479532556552 6295.59998
0.0469599514914 6299.79309
0.0445357505272 6303.9856
0.0455235825448 6308.1781
0.0448514608231 6312.37
0.0463442338497 6316.56067
0.0427219205563 6320.75195
0.0430810795603 6324.94202
0.0443363664851 6329.13208
0.0410717010422 6333.32092
0.0430938682705 6337.50977
0.0403910906384 6341.69739
0.0402923164642 6345.88562
0.0396650093713 6350.07263
0.0397026860578 6354.25964
0.0398098194815 6358.44543
0.0396663035758 6362.63123
0.0395898116505 6366.81641
0.0381112182691 6371.00037
0.0390634169109 6375.18494
0.0371303483565 6379.36829
0.0350691563734 6383.55164
0.0380827215988 6387.73438
0.0356785163555 6391.9165
0.0361106870109 6396.09863
0.0354432106007 6400.27893
0.0362070626133 6404.45984
0.033650959293 6408.63953
0.0337478666182 6412.81921
0.0338827084473 6416.99829
0.0340184422272 6421.17676
0.0318338046653 6425.35461
0.0333168231728 6429.53247
0.0345442808123 6433.70972
0.0315876633707 6437.88635
0.0326699717325 6442.06177
0.0327722417868 6446.23718
0.0298225868891 6450.4126
0.0314937907143 6454.58618
0.0297546551602 6458.76099
0.029935671471 6462.93396
0.029924499419 6467.10693
0.0298342173049 6471.27991
0.0293106675734 6475.45166
0.0282296712277 6479.62341
0.029259894191 6483.79333
0.0268956110741 6487.96448
0.0267272239451 6492.13379
0.0263526558357 6496.3031
0.0273231896688 6500.4718
0.0268971855283 6504.63989
0.0275436438351 6508.80859
0.0269499879161 6512.97546
0.0249491939483 6517.14233
0.0261156970234 6521.30859
0.0257182183004 6525.47485
0.0255637919115 6529.63928
0.0241991207574 6533.80432
0.0250201178574 6537.96814
0.0231667030286 6542.13196
0.0241994577599 6546.29578
0.0227067822661 6550.45837
0.0236656502742 6554.62036
0.0236036375886 6558.78174
0.0229654520539 6562.94312
0.0241824864828 6567.10327
0.0230890687689 6571.26404
0.022696553237 6575.42358
0.0223036182309 6579.58252
0.0208226946764 6583.74084
0.0223138078555 6587.89917
0.021753676628 6592.05688
0.020049420308 6596.21338
0.0194781216174 6600.37048
0.0202644273822 6604.52637
0.0207975167871 6608.68164
0.0211172540838 6612.83691
0.0196754185688 6616.99158
0.020117637104 6621.14502
0.017836766167 6625.29846
0.0191834714732 6629.45129
0.0187542427017 6633.60413
0.0171017369444 6637.75635
0.0195504705728 6641.90674
0.0180710463104 6646.05835
0.0172005846719 6650.20813
0.0167253250193 6654.35791
0.0169155705907 6658.50769
0.0180894337486 6662.65625
0.0165101060094 6666.8042
0.0165353036475 6670.95215
0.0163386785597 6675.09949
0.0172286810171 6679.24622
0.0157632739877 6683.39233
0.0166601457724 6687.53784
0.0160026525255 6691.68335
0.0173197809452 6695.82825
0.0152170739465 6699.97192
0.0154195308601 6704.1156
0.0147321687243 6708.25867
0.0153509419602 6712.40173
0.0137577517779 6716.54358
0.0144221910984 6720.68481
0.0151381710731 6724.82605
0.0147164976802 6728.96667
0.01386176245 6733.10669
0.0131450625602 6737.24609
0.012712871653 6741.38489
0.0149886091839 6745.52307
0.0138337945672 6749.66064
0.0130598396202 6753.79822
0.0127209248344 6757.93579
0.0127734116467 6762.07153
0.0128760355284 6766.20789
0.0119864274372 6770.34241
0.0125355244778 6774.47754
0.0121873588557 6778.61206
0.011785271031 6782.74597
0.0126418949916 6786.87866
0.0118817618644 6791.01135
0.0114708051493 6795.14404
0.01202747649 6799.27551
0.0118691360139 6803.40698
0.0131001785297 6807.53723
0.0119099753645 6811.66748
0.0103974730624 6815.79712
0.0114302210737 6819.92615
0.0120519861771 6824.05457
0.0120479593527 6828.18298
0.0103535843202 6832.31018
0.01050096917 6836.43738
0.0110211352448 6840.56335
0.0107418103218 6844.68994
0.00970685895865 6848.81531
0.0118926283943 6852.93945
0.0101486318116 6857.06482
0.0114788707508 6861.18774
0.00906662005474 6865.31128
0.011762048078 6869.43481
0.0114133354084 6873.55713
0.00969345331663 6877.67883
0.009833920804 6881.79932
0.00810013814843 6885.92041
0.00868443216374 6890.04089
0.00894166877132 6894.16016
0.0109905410158 6898.27881
0.00997472056099 6902.39868
0.0130625899532 6906.51611
0.0119944130309 6910.63354
0.0097765999541 6914.75098
0.00879246456221 6918.86719
0.00894658825966 6922.9834
0.0092724190263 6927.099
0.00936586886684 6931.2146
0.00887531835824 6935.32837
0.00907857529862 6939.44214
0.00910526380363 6943.55652
0.0110067040018 6947.66846
0.00827297598527 6951.78101
0.00935815201888 6955.89294
0.00772858883641 6960.00366
0.00674312271044 6964.11438
0.00891332300431 6968.2251
0.00840977718554 6972.33459
0.0084458385641 6976.44409
0.00939035001043 6980.55298
0.00792042851172 6984.66064
0.00881554908349 6988.76831
0.00996589928346 6992.87537
0.00903425721022 6996.98181
0.00672667490028 7001.08826
0.00788443334988 7005.19348
0.00698400242726 7009.2981
0.00808711168806 7013.40271
0.00831154202529 7017.50732
0.00713765939194 7021.61011
0.0072890395266 7025.7135
0.0081401168208 7029.81567
0.00783942734711 7033.91724
0.00868838654827 7038.0188
0.00728940443188 7042.11914
0.00588352987376 7046.21948
0.00692395399702 7050.31921
0.00622462774736 7054.41895
0.00610712989428 7058.51746
0.00592685396859 7062.61536
0.00652942497112 7066.71265
0.00563740595414 7070.81055
0.00841049789856 7074.90662
0.00719668021913 7079.0033
0.00722876706189 7083.09814
0.00699606465414 7087.19299
0.00809389128302 7091.28784
0.0065885875984 7095.38147
0.00708565288274 7099.4751
0.00609919933941 7103.5675
0.00618743382929 7107.66052
0.00566273058113 7111.75171
0.00254013479366 7115.8429
0.00432656436913 7119.93347
0.00776393514944 7124.02405
0.00874501200946 7128.11401
0.00546416321548 7132.20276
0.00713753939833 7136.2915
0.00632794654594 7140.37964
0.00711290691363 7144.46777
0.00783478509515 7148.55408
0.00387221437195 7152.64099
0.00627974283072 7156.72668
0.00623639062433 7160.81177
0.00569783751067 7164.89746
0.00793560964475 7168.98132
0.00403510450353 7173.06519
0.00650952702866 7177.14844
0.00487956542539 7181.23108
0.00651384055794 7185.31372
0.0056728305401 7189.39514
0.00526408132863 7193.47595
0.00351126091476 7197.55676
0.00592370352564 7201.63696
0.00550567234138 7205.71716
0.00477913795553 7209.79614
0.00419529570532 7213.87451
0.00390963976389 7217.95227
0.00591912493637 7222.02942
0.00232551022457 7226.10718
0.00442121825404 7230.18311
0.00629589094034 7234.25903
0.00546072064589 7238.33374
0.00407264859535 7242.40906
0.0041611093908 7246.48376
0.00534591537536 7250.55725
0.00402294166207 7254.63013
0.00615606727079 7258.703
0.00427777136245 7262.77466
0.0034973615156 7266.84631
0.00279275972706 7270.91797
0.00272155018364 7274.98779
0.00336925012117 7279.05823
0.00522269128443 7283.12805
0.00403596514583 7287.19666
0.00525942300244 7291.26526
0.00341576135012 7295.33264
0.00569714193385 7299.40063
0.00424715675027 7303.4668
0.00539499581701 7307.53357
0.0040148109893 7311.59851
0.00189366422423 7315.66406
0.00352737308853 7319.729
0.00507623294816 7323.79272
0.0073536812439 7327.85645
0.00409126713471 7331.91895
0.00425026755663 7335.98206
0.00554669265347 7340.04333
0.00164075197097 7344.10522
0.0020452367472 7348.16528
0.00325972574611 7352.22656
0.00357974330153 7356.28662
0.0034133245723 7360.34546
0.0021966744303 7364.4043
0.00300051061691 7368.46252
0.00356027686078 7372.52014
0.00234882468537 7376.57715
0.00523881211205 7380.63354
0.00362957731741 7384.68933
0.00154022681461 7388.74512
0.00306585408162 7392.80029
0.00427084595575 7396.85486
0.00234558476674 7400.90881
0.00403694865866 7404.96216
0.00227052314249 7409.0155
0.00477415881184 7413.06702
0.00146955529181 7417.11914
0.00374000784234 7421.17004
0.00301764965284 7425.22095
0.00416228143526 7429.27124
0.00221599928014 7433.32031
0.00401869561873 7437.37
0.00288272268259 7441.41785
0.00420517597766 7445.46631
0.00561864448751 7449.51355
0.00274567920496 7453.56079
0.00308946699755 7457.6062
0.00493941499252 7461.65283
0.00354005084297 7465.69824
0.00406697220915 7469.74243
0.0035833342929 7473.78723
0.00360747145284 7477.8302
0.000790083612332 7481.87378
0.00313871167436 7485.91614
0.00246257543256 7489.9585
0.00634980843704 7493.99963
0.00125668641013 7498.04077
0.000640121895627 7502.0813
0.00513707058091 7506.12122
0.00119175483393 7510.16052
0.00311104307866 7514.19922
0.000839990045108 7518.23792
0.00443763771057 7522.27478
0.00501921471427 7526.31226
0.00262665721408 7530.34851
0.00170448445948 7534.38477
0.00369595539678 7538.42102
0.00333954474332 7542.45544
0.00565224970584 7546.48987
0.00299863782496 7550.52368
-0.000662766279112 7554.5575
0.00323441829169 7558.59009
0.00433605692468 7562.62268
0.0029830509728 7566.65405
0.00280495092917 7570.68542
0.00232351275975 7574.7168
0.0015320737976 7578.74634
0.0036780851877 7582.77588
0.00718123500298 7586.8042
0.00661341015324 7590.83374
0.00562153549217 7594.86084
0.0122236143367 7598.88916
0.0133465910381 7602.91504
0.0175285831491 7606.94214
0.0139223600292 7610.96802
0.00792180519693 7614.99268
0.00731693998194 7619.01733
0.00993319663524 7623.04199
0.0100839231377 7627.06543
0.00502207448732 7631.08826
0.0031864068209 7635.11108
0.00341803079025 7639.13208
0.00211048448272 7643.15369
-0.00119875393559 7647.17529
0.00245966008811 7651.19568
0.0014669471459 7655.21545
0.000577876040456 7659.23462
0.00282678153798 7663.25317
0.00317726528974 7667.27112
-0.00100204808529 7671.28845
0.00377426714424 7675.30518
0.00150545451547 7679.32251
0.00220106919214 7683.33862
-0.000904469865862 7687.35413
0.00187251204032 7691.36841
0.00269399083095 7695.38269
0.00550424231584 7699.39636
0.00529152766966 7703.41003
0.00331366408826 7707.42249
0.000373876361824 7711.43433
0.00179876375791 7715.44617
0.00335396525863 7719.4574
0.00575864758284 7723.46802
0.00290401484817 7727.47803
0.00364242640873 7731.48682
0.000869895327328 7735.49622
0.00294862681044 7739.50439
0.00235116954546 7743.51196
0.000760406239194 7747.51892
0.000392325198107 7751.52588
0.000145015877657 7755.53162
0.0027737837958 7759.53735
-0.00111147950186 7763.54309
0.000652057721495 7767.54639
0.00331610396352 7771.5509
0.00103937679198 7775.5542
0.00104382209584 7779.5575
-0.0013923660512 7783.55896
0.00363318588271 7787.56104
-0.00075731754027 7791.56189
0.00132558256367 7795.56274
0.00303765615518 7799.56299
0.000945365911628 7803.56201
0.00333978742189 7807.56165
0.00028906481534 7811.56006
-0.000515709636327 7815.55786
-0.00119494698946 7819.55505
0.00151746925254 7823.55225
0.00179865986909 7827.54761
0.00510022489536 7831.54358
0.000160534060092 7835.53894
-0.000254428378309 7839.53369
-0.00443123169107 7843.52783
0.00546386722686 7847.52075
0.0031050240692 7851.51367
0.00185168654603 7855.50598
0.00369420296042 7859.49768
0.00158341406609 7863.48877
-0.000831771930628 7867.47986
-0.00140838692805 7871.47034
0.00304260498928 7875.45959
-0.000409932722313 7879.44885
0.00249157642714 7883.4375
-0.0021655110051 7887.42493
-0.000709089691958 7891.41235
0.00282115678718 7895.39917
0.00209451549675 7899.38538
0.00225178535211 7903.37158
0.00255881176301 7907.35718
0.00137144584927 7911.34094
0.00347760442768 7915.32532
0.00168173243871 7919.30847
0.000175837773401 7923.29224
0.00169112317608 7927.27417
0.00123984598651 7931.2561
0.000177174932455 7935.23682
0.000788021865158 7939.21753
0.000789926642251 7943.19824
0.00324471351132 7947.17773
0.00140909531095 7951.15723
0.00202998219898 7955.1355
-0.00291611634468 7959.11377
-0.00152787381536 7963.09082
-0.00246959755879 7967.06787
0.00315498745296 7971.0437
0.000654544769209 7975.01953
-0.00186986407084 7978.99536
0.00303954748862 7982.96936
0.00353158610185 7986.94397
0.000186343389816 7990.91736
-0.0038358962454 7994.89014
0.000672375236131 7998.8623
0.00164722948891 8002.83447
0.00279062255849 8006.80542
-0.001441741928 8010.77637
0.00591034612291 8014.7467
-0.00194094232445 8018.71643
0.00249050673843 8022.68555
0.00414063366393 8026.65405
0.00250087474225 8030.62256
0.00316720039503 8034.58923
0.00433354990834 8038.55652
0.00251849181913 8042.52258
-0.000139331833695 8046.48804
0.0028665442151 8050.4541
-0.00164872320229 8054.41833
-0.000140603091263 8058.38257
-0.00402222999847 8062.34619
0.000704513986984 8066.30859
-0.0035396151656 8070.271
0.00139087084675 8074.23279
-0.0028805873091 8078.19458
-0.00203279816993 8082.15515
0.00347495441549 8086.11572
-0.000144836775369 8090.07507
-0.00014551795432 8094.03381
0.0063183586484 8097.99194
0.00670157437965 8101.95068
0.0136088767221 8105.90759
0.0168620557024 8109.8645
0.0249324489825 8113.8208
0.0243304636226 8117.77649
0.0165486806126 8121.73157
0.0173260729621 8125.68665
0.0157553703468 8129.6405
0.0105478931124 8133.59375
0.0107549487239 8137.54639
0.00895926367863 8141.49841
0.00642411820216 8145.45105
0.00351008788294 8149.40186
0.00223338621405 8153.35266
-0.0016269775313 8157.30347
0.00095270444372 8161.25244
0.00631436504441 8165.20203
0.00188393710781 8169.14978
-0.00275830514134 8173.09753
-0.00090136089041 8177.04468
-0.000904083301683 8180.99182
0.00378065624268 8184.93774
0.00172580900237 8188.88367
-0.000915648372645 8192.82898
0.00573941301405 8196.77307
0.0034792418594 8200.71716
0.00196073133015 8204.66003
-0.000162552395005 8208.60291
-0.0046686467121 8212.54517
0.00318533863147 8216.48743
0.000429296866203 8220.42786
0.00222771952127 8224.3689
0.000434102323936 8228.30872
0.00204817740054 8232.24792
-0.00097882791785 8236.18774
0.000845507435753 8240.12512
0.00308866499151 8244.06311
-0.00426076103392 8247.99988
0.00515694868285 8251.93665
0.00229597393968 8255.8728
0.00663446027187 8259.80835
3.38986906209e-05 8263.74329
0.00481235610128 8267.67761
0.000868320212551 8271.61194
0.00797924485758 8275.54443
0.00171304521335 8279.47754
0.00129694653191 8283.40942
0.0027762701619 8287.34131
0.00235985141423 8291.27136
0.00659896358811 8295.20264
0.000247081841567 8299.13208
0.00386415359421 8303.06152
0.011542475558 8306.99097
0.00324280225927 8310.91797
0.00239473147315 8314.84619
0.00455379538399 8318.77319
0.00370650792008 8322.7002
0.00242020373381 8326.62537
0.00482293317625 8330.55054
-0.000838723251804 8334.4751
-0.00413698477665 8338.39966
0.00312212546194 8342.32361
0.000922047051643 8346.24634
0.00137098793795 8350.16907
0.00160050496549 8354.09058
-0.00580209164652 8358.01208
-0.000188551048468 8361.93298
-0.00494654243386 8365.85327
-0.00587827017657 8369.77295
-0.00476005329075 8373.69202
0.000266787402941 8377.61047
-0.000883113396079 8381.52832
-0.000424287716064 8385.44617
-0.0008895395659 8389.36218
-0.00578038848168 8393.27942
-0.00299589084764 8397.19421
-0.00534590690084 8401.11023
-0.00019620096649 8405.0238
-0.00537234725877 8408.9386
-0.000904126119923 8412.85217
-0.00232323507593 8416.76453
-0.00469552649578 8420.67749
-0.00138395386932 8424.58862
-0.000911636664535 8428.49976
-0.0109282814844 8432.41028
3.90899077044e-05 8436.32019
-0.00283692306997 8440.22949
-0.00477287204534 8444.13879
-0.00237629074597 8448.04749
-0.00287314903954 8451.95496
-0.00142385926717 8455.86182
0.00420822378328 8459.76807
-0.00292029268998 8463.67432
0.00152881574154 8467.57996
-0.00420159438631 8471.48499
-0.00347152784893 8475.38879
0.00835583133456 8479.2926
-0.000465318315129 8483.19641
-0.000976718449015 8487.09839
-0.00149272644049 8491.00098
-0.00895484167391 8494.90234
-0.00305449759124 8498.8031
-0.00410516975573 8502.70325
-0.00230050239187 8506.60339
0.00134998719356 8510.50171
0.00503127067423 8514.40125
-0.00233159196775 8518.29895
-0.00313680226635 8522.19604
-0.00235118841713 8526.09314
-0.00930987265169 8529.98901
0.00379463553303 8533.8855
-0.00614278446549 8537.78015
-0.00994103894343 8541.6748
4.42532126641e-05 8545.56885
-0.00131123522226 8549.46228
-0.00294554373715 8553.35571
-0.0073147745696 8557.24731
0.0011369056168 8561.13953
-0.00981853066912 8565.03052
-0.00325004175986 8568.92151
-0.00160701420933 8572.81067
-0.0104580608862 8576.70105
-0.0102165713199 8580.5896
-0.00412836837703 8584.47754
-0.00274784615355 8588.36609
-0.000795654880356 8592.25281
-0.00277229218683 8596.13892
-0.00760218745158 8600.02502
-0.00137606752287 8603.91052
-0.00882181618574 8607.79541
-0.00742713566982 8611.67969
0.00495376778741 8615.56335
0.00207807254947 8619.44702
-0.00111849324855 8623.32947
-0.00493356607124 8627.21069
-0.00112926592125 8631.09253
-0.00261399046215 8634.97314
0.000940268510757 8638.85376
0.00751317602418 8642.73315
0.00485177456073 8646.61255
0.0012566109648 8650.49072
0.00338643638976 8654.3689
-0.00208539433742 8658.24707
0.0018893800101 8662.1228
-0.00179861069522 8665.99915
5.06820604164e-05 8669.87488
-0.000260300659781 8673.75061
-0.00589420002133 8677.62451
-0.0150549495731 8681.49841
0.00384355595371 8685.3717
0.000369805888848 8689.24438
-0.00602324383788 8693.11707
-0.00316342032779 8696.98853
0.0016702332998 8700.85938
-0.00352794145448 8704.72961
-0.011089481034 8708.59985
-0.00785854512589 8712.46887
-0.0115580976147 8716.33789
-0.00561791160825 8720.20569
0.00542266210023 8724.07349
-0.00467355547916 8727.94067
5.56124769204e-05 8731.80725
-0.0061023942453 8735.67322
-0.00132083629231 8739.53796
-0.00687784325412 8743.40332
-0.00308379879914 8747.26624
-0.01189344888 8751.13037
0.00217858786311 8754.99329
-0.00065310431327 8758.85559
0.000773660945686 8762.71729
-0.00892896079334 8766.57898
-0.00246692130952 8770.44006
0.00223104413244 8774.29932
0.00368834145146 8778.15918
0.00951070943157 8782.01782
0.000788122669712 8785.87585
0.0150013447028 8789.73389
0.00991449764319 8793.5907
0.000425548939736 8797.44751
-0.00543753920416 8801.3031
0.00189620669996 8805.1593
0.00300695023844 8809.01367
-0.00400835931749 8812.86804
-0.00700070019271 8816.7218
0.000807991325994 8820.57434
-0.0085815659789 8824.42749
-0.00485185981791 8828.27942
-0.018586206735 8832.13013
-0.00758967985183 8835.98145
-0.00109091072008 8839.83154
-0.00805801121503 8843.68042
-0.00654001442524 8847.53052
-0.0124197461136 8851.37817
-0.00306620991729 8855.22644
-0.00621729922074 8859.07349
-0.00781227797526 8862.92053
-0.00467542392962 8866.76636
0.00600641515303 8870.61157
0.00523358710248 8874.4574
-0.00312946065148 8878.30078
-0.00595136994634 8882.14539
-0.000336908228742 8885.98816
-0.008840728679 8889.83093
-0.00562641698139 8893.67249
0.00496532889231 8897.51465
-0.013473106067 8901.35498
-0.00116760927253 8905.19531
-0.00365140092634 8909.03503
-0.00988666924577 8912.87415
-0.0120004783935 8916.71326
-0.00619146485109 8920.55054
0.0063429539399 8924.38843
0.00594232753107 8928.2251
0.00511875486138 8932.06116
-0.00119770988187 8935.89661
0.00811564315564 8939.73206
0.000494773807586 8943.56628
0.00476506604248 8947.3999
0.0129282698312 8951.23352
-0.00812249578193 8955.06592
-0.00643283775188 8958.89832
-0.00210932496288 8962.72949
-0.00300126615465 8966.56067
0.00404950073664 8970.39063
-0.00215324983155 8974.22058
0.00724605907115 8978.04993
-0.0085127567025 8981.87866
-0.0103965611271 8985.70618
0.00694684997826 8989.53369
0.00376600858339 8993.36121
-0.00085280760699 8997.18689
-0.00039075380714 9001.01257
-0.00180261311608 9004.83704
-0.000394998311754 9008.66211
-0.0193934956073 9012.48596
-0.0194746967281 9016.3092
-0.00996868779154 9020.13184
-0.00999912707928 9023.95386
0.00969152737863 9027.77588
-0.0143815845468 9031.59668
-0.00185029374977 9035.41687
0.00249128188394 9039.23645
-0.00522957296572 9043.05603
-0.00281458137647 9046.875
-0.00136622413702 9050.69275
-0.00376929358703 9054.5105
-0.00904503531348 9058.32642
-0.00662817255087 9062.14294
-0.0113905051611 9065.95825
-0.00801938676807 9069.77417
-0.000396807178874 9073.58826
-0.00464833261378 9077.40234
-0.00933099914755 9081.21582
-0.0031971866439 9085.02869
-0.00317714591206 9088.84033
-0.00915664959362 9092.65198
-0.0168788654587 9096.46301
-0.0171932478261 9100.27344
-0.00262708697461 9104.08325
-0.0142087884806 9107.89246
-0.00125364335971 9111.70105
-0.0161490785919 9115.50903
-0.0107941285364 9119.31641
-0.00424064566894 9123.12317
-0.00378337575085 9126.92932
0.00177178462867 9130.73547
-0.00586202662313 9134.53979
-0.00499590345407 9138.34473
-0.00161459437072 9142.14783
0.000488780884109 9145.95154
-0.00664701671646 9149.75464
0.00384201221445 9153.55652
-0.00538335648677 9157.3584
-0.00748180773934 9161.15845
-0.0041268193234 9164.95972
-0.0137922995644 9168.75854
-0.00623624185815 9172.55859
-0.0079322128467 9176.3562
-0.00246370613847 9180.15503
6.93472405729e-05 9183.95203
0.00134770678338 9187.74902
-0.00679719311251 9191.5448
-0.00166103473139 9195.34058
-0.00737113221983 9199.13574
-0.00303032264078 9202.92969
-0.0057716445314 9206.72363
-0.00129476401502 9210.51636
-0.0101351165834 9214.30969
-0.013611410629 9218.10181
-0.000881011520835 9221.89331
-0.00187151171032 9225.6842
0.00702030962922 9229.47388
-0.00294004821184 9233.26416
0.00724112761927 9237.05261
-0.0160127931544 9240.84106
-0.00254583340063 9244.62891
-0.00631768215629 9248.41675
-0.00477974527681 9252.20337
-0.00484294346849 9255.98938
-0.019907747045 9259.77478
0.00739885677983 9263.55957
-0.0152880777117 9267.34436
-0.02587290599 9271.12732
-0.0139197950227 9274.91089
-0.00758711246127 9278.69324
-0.015463902736 9282.47559
9.91175739107e-05 9286.25671
0.00561852075189 9290.03723
-0.0197879240355 9293.81775
-0.0150095243888 9297.59705
-0.0216057160726 9301.37634
-0.00766434095748 9305.15381
0.0119352921908 9308.9325
0.00612159485714 9312.70935
-0.0298328896023 9316.4856
-0.0165209293926 9320.26123
-0.00553942823304 9324.03687
0.00156229960504 9327.8125
0.0104619829651 9331.5863
-0.00214778309496 9335.36011
-0.0278734837467 9339.13208
0.00572323506692 9342.90527
-0.0138583661571 9346.67664
-0.0236377628376 9350.448
-0.00599390326241 9354.21814
0.00468185537194 9357.98889
0.00578767173517 9361.75842
-0.0183457627372 9365.52673
-0.00993699636437 9369.29504
-0.0260506062249 9373.06274
-0.0346714188132 9376.83044
0.00809172895387 9380.5957
-0.0631835565965 9384.36218
-0.0496874766041 9388.12744
0.000206150250278 9391.89148
-0.0363125149995 9395.65613
-0.0388841312965 9399.41956
0.00996235863604 9403.18237
-0.0212689875812 9406.94458
-0.052858995451 9410.70557
-0.00883010388888 9414.46655
-0.0183424587352 9418.22693
-0.0108239109892 9421.98669
-0.0465622911265 9425.74646
-0.0177861639645 9429.50562
-0.0230385320675 9433.26294
-0.06209898871 9437.02026
-0.0780302834062 9440.77698
-0.0322871720666 9444.53369
0.0330023541867 9448.28918
-0.0464343059371 9452.04468
-0.0274562003732 9455.79834
-0.0292172931808 9459.55261
0.000283841365868 9463.30627
-0.013575849065 9467.05811
0.0158339637291 9470.81055
-0.00488655737427 9474.56177
-0.00658232382643 9478.31238
0.00710646393517 9482.06238
-0.0217853448879 9485.81238
-0.021634288722 9489.56116
-0.0482367916282 9493.30933
0.0267791426704 9497.05811
-0.0309374265263 9500.80505
-0.0680592722802 9504.55139
-0.0544568451754 9508.29773
0.00344162484556 9512.04346
-0.0154757977692 9515.78735
-0.0355345425703 9519.53186
-0.036675612141 9523.27515
0.0124143322313 9527.01843
-0.00276343036115 9530.76172
-0.00124581475854 9534.50195
0.000241469613139 9538.24341
-0.0129261968346 9541.98486
0.000237465805914 9545.72449
-0.0213808714088 9549.4635
-0.0384397459244 9553.20251
0.00165649451032 9556.94092
-0.0266960118881 9560.67871
-0.0279965883691 9564.41589
-0.061684712494 9568.15125
-0.0390470327395 9571.88721
-0.00256918368203 9575.62256
-0.0431110384872 9579.3573
-0.0346982729115 9583.09021
-0.00396119205713 9586.82373
0.0114064867256 9590.55664
0.00302679184414 9594.28955
-0.00957765615934 9598.02063
0.0702822141279 9601.7511
-0.0334811301218 9605.48157
-0.00819976139805 9609.21143
-0.0124171707613 9612.94128
-0.00257940498086 9616.66809
-0.0264510598674 9620.39612
0.00443707053752 9624.12415
-0.00677931539582 9627.85095
-0.00257277765688 9631.57715
-0.0628733789222 9635.30151
-0.00397611915085 9639.02649
-0.0152120900998 9642.75146
0.024124533291 9646.47522
0.0129126008697 9650.19714
-0.00118197637118 9653.92029
-0.00969054882456 9657.6416
-0.0125617972699 9661.36292
-0.0225753014985 9665.08423
-0.0569444751933 9668.80371
0.021689001811 9672.52319
-0.0255620284218 9676.24207
-0.0270170431552 9679.96094
-0.00550274859777 9683.67737
0.00597128917114 9687.39441
-0.00550155618113 9691.11084
-0.0112340730407 9694.82666
-0.0284295218373 9698.54248
-0.0226823882046 9702.25586
0.0059581596541 9705.96985
-0.0126446001233 9709.68323
-0.0169390031991 9713.39661
-0.0556386879247 9717.10754
-0.0270052879455 9720.81909
-0.0558094408867 9724.53064
-0.0242503875556 9728.24097
-0.0518269941631 9731.94946
0.00314060585001 9735.65918
-0.0216557193041 9739.36768
-0.0247185194744 9743.07556
0.00910107529657 9746.78284
0.00321569781426 9750.48828
-0.0192095268703 9754.19495
-0.00879011724964 9757.90039
-0.0300773520504 9761.60522
-0.0287402418101 9765.30884
-0.0350582451787 9769.01245
-0.00900901178712 9772.71606
-0.0478892235894 9776.41846
0.0205324721979 9780.12024
-0.00915289456783 9783.82019
-0.0486156575385 9787.52136
-0.00923857012271 9791.22131
-0.0347296668028 9794.92065
-0.0396749949003 9798.61877
-0.00936029711081 9802.31689
-0.0432524049577 9806.0144
0.00835604917245 9809.71191
0.0181549393017 9813.4082
-0.00463931604025 9817.10266
-0.0491214291673 9820.79773
-0.0361757075125 9824.4928
-0.0180716204263 9828.18604
-0.0148426577003 9831.87866
0.0222677385076 9835.57129
-0.0253054705407 9839.26331
-0.0220624800701 9842.95471
-0.0551581202236 9846.64612
-0.0171603923281 9850.33569
0.0178506171143 9854.02527
-0.0191711444985 9857.71362
-0.106673791113 9861.40259
-0.0104610158049 9865.08911
-0.0701225554775 9868.77625
-0.0851754211812 9872.46277
0.0222610990528 9876.14929
-0.0107752913787 9879.83459
-0.0425695085839 9883.51807
-0.0279347453654 9887.20215
-0.0396682557364 9890.88623
-0.0555396263493 9894.56909
-0.0386436742178 9898.25012
0.00819989090467 9901.93115
-0.037517698796 9905.61279
-0.0419173520274 9909.29321
0.0226434934485 9912.97302
0.020776572668 9916.651
-0.0305491160174 9920.3302
-0.0431595729545 9924.00818
0.0273878213632 9927.68494
-0.0603334561293 9931.36047
-0.031173616057 9935.03723
-0.109499489399 9938.71277
-0.0696621479619 9942.3877
-0.0529408131776 9946.0614
-0.0532138790144 9949.7345
-0.0578091783014 9953.40759
-0.0342928363228 9957.08008
-0.0889668978919 9960.75195
-0.0500093870663 9964.422
0.0179650105836 9968.09265
-0.0262028704922 9971.7627
-0.0263494121783 9975.43152
-0.0220212338599 9979.10095
-0.0604582920658 9982.76733
0.0252869898241 9986.43494
-0.0429788332639 9990.10193
-0.0777843059183 9993.76831
-0.00193625694258 9997.43286
-0.0393195925984 10001.09802
-0.0632575946492 10004.76257
0.00514689206767 10008.42651
0.0172181870051 10012.08923
0.00282840216112 10015.75134
0.0200735528909 10019.41284
-0.099251228911 10023.07434
-0.0147123355488 10026.73523
-0.0200026879635 10030.39429
-0.0667880902527 10034.05334
-0.0178747536803 10037.71179
0.0162910129039 10041.37024
-0.0690327520309 10045.02808
0.000441066952812 10048.68408
-0.105604889734 10052.34009
-0.0159730182335 10055.99609
-0.0298482304759 10059.65149
0.0447525268585 10063.30444
-0.0385410902594 10066.95862
-0.0135418746271 10070.61218
-0.03896898215 10074.26453
-0.144179359133 10077.91626
-0.0880296142745 10081.56677
0.0579566874584 10085.21729
-0.034351357554 10088.8678
-0.0904382149791 10092.51709
-0.0202658986255 10096.16577
-0.0415291216493 10099.81384
0.00657788027393 10103.4613
-0.0118276734123 10107.10754
0.053657232412 10110.75439
-0.0216958526179 10114.39941
-0.0187917395451 10118.04443
-0.0321230955538 10121.68884
-0.158473175873 10125.33325
-0.147067468501 10128.97522
-0.0707008646548 10132.6178
0.0142754271389 10136.26038
0.00749410903313 10139.90112
0.0285432410157 10143.54187
-0.0594420878281 10147.1814
-0.0421702119294 10150.82153
0.0724710038957 10154.46045
-0.0211973036392 10158.09937
0.0409586429695 10161.73523
-0.0105252649403 10165.3717
-0.0594637019888 10169.00879
0.0234063882432 10172.64404
-0.0685663118759 10176.27991
-0.135504786964 10179.91333
-0.101578837995 10183.54675
-0.0589155658842 10187.18018
-0.139704815192 10190.81299
0.0935836294333 10194.44397
-0.0767708980175 10198.07495
-0.118408870074 10201.70593
-0.0282499963181 10205.33691
0.0173143591436 10208.96606
-0.0537481912706 10212.5946
-0.028814624025 10216.22253
-0.216019207182 10219.85046
-0.0378115818311 10223.47778
-0.0770086092673 10227.10327
-0.0559580545687 10230.72876
-0.0433418426977 10234.35364
-0.0393951988901 10237.97852
-0.0895757702543 10241.60278
-0.0816062317115 10245.22461
-0.0456044832849 10248.84766
-0.262625757411 10252.46948
-0.103986540692 10256.09131
-0.192181952278 10259.71069
-0.00407996727932 10263.3313
-0.0287971837051 10266.94946
-0.138879229771 10270.56885
-0.22099910088 10274.18823
-0.100927103377 10277.80396
-0.10188654209 10281.4209
-0.185866090983 10285.03784
-0.00437568338108 10288.65479
-0.147126240406 10292.26807
-0.0845103623116 10295.88135
-0.112342209698 10299.49707
-0.0372375679468 10303.10913
-0.0486579642445 10306.72241
-0.010223556971 10310.33325
0.141607782382 10313.94531
-0.00476335160548 10317.55493
-0.0105796664322 10321.16577
-0.168131423248 10324.77417
0.00685691725246 10328.38257
-0.130170225689 10331.99097
-0.101451981787 10335.59937
0.0253496706257 10339.20654
-0.165269413474 10342.81128
-0.04877038519 10346.41724
-0.0682064161655 10350.02197
-0.241071369424 10353.62671
-0.237542635287 10357.229
-0.168657451474 10360.83252
-0.131131150941 10364.43481
-0.199811909241 10368.03711
-0.134484477769 10371.6394
0.124517966709 10375.23804
-0.283383079206 10378.83789
0.0641413544594 10382.43774
0.0011550862113 10386.03638
-0.162272052836 10389.63257
-0.0701772680999 10393.2312
-0.134706685541 10396.82861
