Jaz Data File
++++++++++++++++++++++++++++++++++++
Date: Wed Dec 03 21:46:04 2014
User: jaz
Dark Spectrum Present: Yes
Reference Spectrum Present: Yes
Processed Spectrum Present: No
Spectrometers: JAZA2310
Integration Time (usec): 36000 (JAZA2310)
Spectra Averaged: 1 (JAZA2310)
Boxcar Smoothing: 0 (JAZA2310)
Correct for Electrical Dark: Yes (JAZA2310)
Strobe/Lamp Enabled: No (JAZA2310)
Correct for Detector Non-linearity: Yes (JAZA2310)
Correct for Stray Light: No (JAZA2310)
Number of Pixels in Processed Spectrum: 2048
>>>>>Begin Processed Spectral Data<<<<<
W	D	R	S
188.301102	0.000000	0.000000	0.000000
188.764923	0.000000	0.000000	0.000000
189.228699	-50.851192	-7.558390	-21.925690
189.692459	-18.570162	-39.833500	-56.692650
190.156158	11.212086	-62.188099	-98.937538
190.619812	-11.123223	-57.219715	-128.776093
191.083435	-1.195390	-15.005013	-39.306591
191.547043	-3.677091	81.726685	25.225117
192.010590	6.249354	4.850288	25.225117
192.474091	28.578102	-0.112843	42.587036
192.937561	110.378319	17.256495	-16.960720
193.401001	38.499279	37.100838	17.782761
193.864410	-58.303181	22.218170	64.902000
194.327759	13.693295	17.256495	-2.068192
194.791077	78.167336	37.100838	40.107033
195.254349	40.979210	42.060989	-19.443220
195.717575	-3.677091	22.218170	25.225117
196.180786	-1.195390	7.331765	35.146851
196.643951	-38.433235	-12.522700	79.774162
197.107071	16.174267	59.417999	-26.891212
197.570145	-8.641074	-67.156906	15.301722
198.033203	-58.303181	-32.383865	45.066933
198.496216	13.693295	-29.900818	10.339468
198.959167	-1.195390	-24.935040	0.413576
199.422089	-28.500927	22.218170	2.895239
199.884979	8.730772	22.218170	-26.891212
200.347855	-26.018044	12.294271	5.376663
200.810654	-65.756126	-0.112843	5.376663
201.273422	-55.819035	-19.969816	-46.757107
201.736160	-6.159030	4.850288	42.587036
202.198853	-40.916641	22.218170	-49.240868
202.661514	-8.641074	-17.487295	-14.478327
203.124130	3.767967	-54.735619	-91.480339
203.586700	3.767967	-49.767868	50.026287
204.049240	-55.819035	-92.007721	-93.966003
204.511734	-6.159030	-89.522133	72.338608
204.974197	-58.303181	-84.551277	-69.114494
205.436615	18.655268	-82.066147	-44.273586
205.899002	-73.210014	-94.493279	-41.790035
206.361343	-30.983778	-24.935040	-34.340149
206.823654	-23.535265	37.100838	2.895239
207.285919	-90.606194	-7.558390	-29.374132
207.748123	-26.018044	-34.866882	-74.083893
208.210327	-110.493988	-141.741119	5.376663
208.672485	-18.570162	-34.866882	59.943890
209.134583	8.730772	-72.126274	-39.306591
209.596649	-33.466869	-39.833500	7.858117
210.058670	-40.916641	-5.076527	-26.891212
210.520676	-11.123223	-52.251621	-84.024094
210.982635	-55.819035	-44.800404	-86.509453
211.444534	-70.725372	2.368707	-7.031905
211.906403	-65.756126	-32.383865	-74.083893
212.368240	-58.303181	-17.487295	-46.757107
212.830048	-16.087700	-72.126274	-39.306591
213.291779	-40.916641	-32.383865	-61.661121
213.753494	-115.466934	-49.767868	-54.208710
214.215179	6.249354	-59.703789	-16.960720
214.676819	-48.367363	-87.036652	-44.273586
215.138412	-18.570162	-0.112843	-7.031905
215.599960	-48.367363	-12.522700	-49.240868
216.061493	-35.950069	14.775435	-64.145386
216.522949	-53.335133	32.140408	-79.053848
216.984406	-88.120804	-89.522133	-51.724735
217.445801	-63.271660	-34.866882	-14.478327
217.907166	-75.694908	-89.522133	0.413576
218.368484	-45.883778	-74.611115	-49.240868
218.829773	-65.756126	-57.219715	-49.240868
219.291031	-85.635391	-104.436981	-19.443220
219.752228	-8.641074	-2.594633	-21.925690
220.213379	-40.916641	-126.816483	-39.306591
220.674500	6.249354	-77.095932	-7.031905
221.135574	-55.819035	-109.409546	-39.306591
221.596634	-11.123223	-22.452444	-64.145386
222.057648	70.731590	-52.251621	5.376663
222.518600	6.249354	-79.580978	10.339468
222.979553	31.058451	-24.935040	-26.891212
223.440430	3.767967	-64.672516	-9.513986
223.901276	-55.819035	-39.833500	42.587036
224.362076	23.616825	-62.188099	-41.790035
224.822845	-33.466869	-52.251621	-71.599205
225.283569	16.174267	-57.219715	-14.478327
225.744278	-167.709503	-79.580978	-79.053848
226.204910	-48.367363	-44.800404	-39.306591
226.665512	-75.694908	-89.522133	-91.480339
227.126114	16.174267	-42.316833	27.705740
227.586639	-3.677091	-17.487295	-24.408400
228.047119	-16.087700	-92.007721	-36.823387
228.507568	-40.916641	-19.969816	-46.757107
228.967972	26.097515	-99.464981	-51.724735
229.428345	-18.570162	-84.551277	-86.509453
229.888687	8.730772	-139.253387	-11.996171
230.348984	3.767967	17.256495	-14.478327
230.809219	-85.635391	-17.487295	-14.478327
231.269440	-50.851192	-17.487295	-29.374132
231.729614	-23.535265	39.580967	-59.176838
232.189758	-70.725372	-5.076527	-44.273586
232.649841	-58.303181	-42.316833	-56.692650
233.109894	-95.577576	27.179428	-54.208710
233.569901	-70.725372	-2.594633	-61.661121
234.029892	-13.605341	-19.969816	-34.340149
234.489822	-40.916641	4.850288	-71.599205
234.949707	21.136166	-17.487295	-61.661121
235.409561	-38.433235	-89.522133	-56.692650
235.869385	-16.087700	-59.703789	-54.208710
236.329163	-28.500927	-49.767868	-31.857023
236.788895	-90.606194	-44.800404	2.895239
237.248581	-23.535265	42.060989	22.744390
237.708237	-13.605341	-37.350140	-61.661121
238.167847	63.294918	-47.284084	-16.960720
238.627441	21.136166	-12.522700	7.858117
239.086960	33.538830	-57.219715	-34.340149
239.546463	-6.159030	-101.950867	5.376663
240.005920	-30.983778	-101.950867	-88.994911
240.465332	-13.605341	-32.383865	-16.960720
240.924698	45.939041	-94.493279	-34.340149
241.384033	36.019108	24.698919	-61.661121
241.843338	-38.433235	-101.950867	-7.031905
242.302597	-65.756126	-67.156906	-16.960720
242.761810	-21.052593	-77.095932	-69.114494
243.220993	6.249354	-79.580978	25.225117
243.680115	-8.641074	-15.005013	-24.408400
244.139221	-137.850861	-17.487295	57.464607
244.598282	-70.725372	-39.833500	-108.882004
245.057297	58.336536	-44.800404	-118.828194
245.516266	-45.883778	-44.800404	-79.053848
245.975189	-135.363297	-82.066147	27.705740
246.434082	-50.851192	-19.969816	-34.340149
246.892944	-3.677091	-24.935040	-64.145386
247.351761	-33.466869	-77.095932	74.817139
247.810516	-78.179901	2.368707	-36.823387
248.269272	-3.677091	-42.316833	-41.790035
248.727951	-45.883778	-47.284084	-46.757107
249.186600	-55.819035	-32.383865	-39.306591
249.645218	-70.725372	-7.558390	45.066933
250.103790	-93.091835	-19.969816	-34.340149
250.562317	-28.500927	-10.040493	-31.857023
251.020813	-38.433235	-77.095932	-19.443220
251.479279	-28.500927	-52.251621	-4.549929
251.937668	45.939041	-59.703789	-44.273586
252.396057	-1.195390	-34.866882	-86.509453
252.854385	-83.150078	-62.188099	-7.031905
253.312683	-63.271660	37.100838	10.339468
253.770920	-48.367363	-34.866882	-54.208710
254.229126	-28.500927	-49.767868	40.107033
254.687302	-21.052593	-37.350140	-26.891212
255.145432	-18.570162	-106.923210	-26.891212
255.603500	-33.466869	32.140408	27.705740
256.061584	6.249354	-62.188099	-59.176838
256.519592	-53.335133	42.060989	-11.996171
256.977570	-45.883778	-54.735619	-11.996171
257.435455	28.578102	-82.066147	-41.790035
257.893372	-60.787434	-15.005013	-11.996171
258.351196	-53.335133	-89.522133	47.546593
258.808990	-48.367363	-10.040493	-39.306591
259.266754	-70.725372	-111.895851	-14.478327
259.724487	-55.819035	-101.950867	-29.374132
260.182190	-43.400158	-131.790985	-26.891212
260.639832	-28.500927	-74.611115	-7.031905
261.097443	-28.500927	-59.703789	-4.549929
261.554993	-75.694908	-37.350140	59.943890
262.012512	-40.916641	2.368707	-4.549929
262.469971	-13.605341	-54.735619	-24.408400
262.927429	-6.159030	-12.522700	-46.757107
263.384827	-11.123223	-39.833500	-14.478327
263.842194	-11.123223	-42.316833	-16.960720
264.299530	-85.635391	-0.112843	0.413576
264.756805	-60.787434	-52.251621	2.895239
265.214050	-75.694908	-39.833500	-71.599205
265.671234	-58.303181	-24.935040	-31.857023
266.128387	-63.271660	-22.452444	-9.513986
266.585510	-23.535265	2.368707	-74.083893
267.042572	-8.641074	24.698919	-88.994911
267.499573	-8.641074	-10.040493	-126.288918
267.956604	21.136166	-37.350140	15.301722
268.413574	6.249354	-54.735619	-49.240868
268.870483	-48.367363	7.331765	5.376663
269.327362	-63.271660	-62.188099	-36.823387
269.784180	-75.694908	-7.558390	-106.395836
270.240936	-75.694908	-72.126274	-61.661121
270.697693	-40.916641	-67.156906	-19.443220
271.154419	-70.725372	-42.316833	-2.068192
271.611053	-33.466869	-52.251621	-26.891212
272.067688	-147.802048	-32.383865	-14.478327
272.524292	-58.303181	9.813137	-34.340149
272.980835	-45.883778	-77.095932	-88.994911
273.437347	-78.179901	-49.767868	-29.374132
273.893799	3.767967	-32.383865	-24.408400
274.350250	6.249354	19.737318	32.666542
274.806610	-40.916641	4.850288	-14.478327
275.262939	-11.123223	-94.493279	-56.692650
275.719238	-45.883778	-37.350140	-11.996171
276.175507	-53.335133	-42.316833	-81.538857
276.631714	-33.466869	-62.188099	-16.960720
277.087891	-33.466869	-2.594633	-61.661121
277.544067	-45.883778	-54.735619	2.895239
278.000122	-100.549232	-84.551277	-71.599205
278.456177	-26.018044	-119.355682	-19.443220
278.912201	8.730772	-12.522700	-14.478327
279.368164	-70.725372	-99.464981	-19.443220
279.824097	-120.440453	-67.156906	-56.692650
280.279968	-78.179901	-92.007721	-49.240868
280.735840	-55.819035	-22.452444	-66.629890
281.191620	-11.123223	12.294271	77.295700
281.647400	-28.500927	-52.251621	-26.891212
282.103149	-65.756126	-2.594633	-71.599205
282.558838	-83.150078	-54.735619	-49.240868
283.014465	-3.677091	29.659971	-71.599205
283.470062	6.249354	-62.188099	-51.724735
283.925629	-18.570162	-47.284084	12.820714
284.381134	-68.240692	-24.935040	-41.790035
284.836639	-53.335133	-111.895851	-71.599205
285.292053	-11.123223	17.256495	-49.240868
285.747467	23.616825	-47.284084	-21.925690
286.202820	-63.271660	27.179428	-2.068192
286.658142	-50.851192	-0.112843	-56.692650
287.113434	-78.179901	-17.487295	-46.757107
287.568634	-88.120804	24.698919	30.186123
288.023804	-78.179901	-5.076527	-71.599205
288.478973	-6.159030	-22.452444	0.413576
288.934113	-85.635391	-64.672516	-31.857023
289.389130	-83.150078	-69.641533	7.858117
289.844208	-55.819035	-27.417875	-71.599205
290.299164	-38.433235	-44.800404	20.263695
290.754089	-122.927231	-79.580978	47.546593
291.208984	-28.500927	-19.969816	7.858117
291.663879	-1.195390	-54.735619	64.902000
292.118683	53.377872	-87.036652	-14.478327
292.573456	6.249354	19.737318	-29.374132
293.028198	-58.303181	-57.219715	17.782761
293.482849	33.538830	-0.112843	-54.208710
293.937561	8.730772	19.737318	-29.374132
294.392151	43.459179	-89.522133	-16.960720
294.846741	-40.916641	-24.935040	-64.145386
295.301239	28.578102	-49.767868	-39.306591
295.755737	-33.466869	-79.580978	-24.408400
296.210175	-48.367363	-32.383865	-34.340149
296.664581	-18.570162	-87.036652	-7.031905
297.118958	-117.953644	-49.767868	47.546593
297.573242	-45.883778	-15.005013	-46.757107
298.027557	1.286340	-77.095932	-59.176838
298.481812	21.136166	-24.935040	0.413576
298.935974	38.499279	-104.436981	15.301722
299.390137	-78.179901	-44.800404	-56.692650
299.844238	-105.521469	9.813137	12.820714
300.298340	-35.950069	-10.040493	-41.790035
300.752350	-78.179901	-15.005013	-98.937538
301.206360	-8.641074	-24.935040	-31.857023
301.660278	-35.950069	-96.979080	-79.053848
302.114197	-6.159030	-19.969816	-51.724735
302.568054	-35.950069	-96.979080	-51.724735
303.021881	-23.535265	-74.611115	-34.340149
303.475677	3.767967	-2.594633	0.413576
303.929413	-13.605341	-44.800404	22.744390
304.383118	-1.195390	-52.251621	-39.306591
304.836761	-28.500927	-99.464981	-44.273586
305.290375	-28.500927	-92.007721	37.627060
305.743958	-43.400158	-19.969816	-46.757107
306.197510	-33.466869	22.218170	5.376663
306.650970	-26.018044	12.294271	-39.306591
307.104431	-30.983778	-22.452444	-44.273586
307.557800	26.097515	-101.950867	-4.549929
308.011169	-55.819035	-84.551277	-4.549929
308.464508	3.767967	-22.452444	25.225117
308.917755	-55.819035	-77.095932	10.339468
309.371063	-70.725372	-34.866882	-81.538857
309.824219	-3.677091	-84.551277	17.782761
310.277374	-65.756126	-99.464981	-61.661121
310.730499	13.693295	24.698919	47.546593
311.183563	-3.677091	-52.251621	-41.790035
311.636597	11.212086	-32.383865	30.186123
312.089569	-3.677091	-57.219715	-41.790035
312.542511	-1.195390	-12.522700	-76.568817
312.995422	-21.052593	-52.251621	-84.024094
313.448273	-40.916641	-69.641533	-103.909622
313.901093	28.578102	-54.735619	-56.692650
314.353882	33.538830	-34.866882	10.339468
314.806580	-80.664864	19.737318	10.339468
315.259308	-70.725372	17.256495	-49.240868
315.711975	11.212086	-2.594633	-71.599205
316.164581	-70.725372	-77.095932	-46.757107
316.617126	36.019108	-24.935040	-49.240868
317.069672	3.767967	-44.800404	64.902000
317.522156	50.898319	-62.188099	17.782761
317.974579	-6.159030	-32.383865	32.666542
318.427002	1.286340	24.698919	12.820714
318.879333	-30.983778	-57.219715	-24.408400
319.331665	3.767967	-57.219715	-46.757107
319.783936	-45.883778	-5.076527	-66.629890
320.236176	-68.240692	-7.558390	-36.823387
320.688354	18.655268	-29.900818	-46.757107
321.140503	-68.240692	-37.350140	-74.083893
321.592651	-28.500927	-0.112843	-66.629890
322.044647	3.767967	-111.895851	-19.443220
322.496704	-53.335133	-37.350140	47.546593
322.948639	-30.983778	12.294271	-51.724735
323.400604	-35.950069	-34.866882	-4.549929
323.852509	-18.570162	-64.672516	89.686836
324.304352	-28.500927	-37.350140	-31.857023
324.756165	-16.087700	-34.866882	2.895239
325.207916	-33.466869	-47.284084	-21.925690
325.659668	-13.605341	-2.594633	-36.823387
326.111328	-16.087700	-64.672516	40.107033
326.562988	-95.577576	-12.522700	-54.208710
327.014557	-1.195390	7.331765	-4.549929
327.466156	23.616825	-109.409546	22.744390
327.917664	-63.271660	-124.329529	-71.599205
328.369110	-85.635391	-15.005013	-7.031905
328.820557	80.645767	-7.558390	-26.891212
329.271942	-26.018044	2.368707	10.339468
329.723297	55.857323	-24.935040	-11.996171
330.174561	-26.018044	-64.672516	-14.478327
330.625854	-30.983778	4.850288	2.895239
331.077026	8.730772	34.620743	-4.549929
331.528229	-60.787434	-17.487295	5.376663
331.979370	-3.677091	-19.969816	20.263695
332.430450	-13.605341	-42.316833	-49.240868
332.881500	-63.271660	12.294271	-24.408400
333.332489	-78.179901	-27.417875	-56.692650
333.783478	-8.641074	-37.350140	-26.891212
334.234406	-28.500927	-52.251621	-36.823387
334.685303	-43.400158	-72.126274	-31.857023
335.136078	-38.433235	-64.672516	-2.068192
335.586914	-50.851192	-74.611115	-79.053848
336.037659	13.693295	44.540775	-79.053848
336.488342	-90.606194	44.540775	-69.114494
336.939026	40.979210	-19.969816	-66.629890
337.389648	40.979210	-44.800404	-31.857023
337.840240	13.693295	69.334038	-49.240868
338.290771	-78.179901	-22.452444	-21.925690
338.741272	-85.635391	-29.900818	-118.828194
339.191681	-38.433235	-0.112843	-46.757107
339.642120	-53.335133	2.368707	-46.757107
340.092468	40.979210	-44.800404	25.225117
340.542816	-18.570162	42.060989	20.263695
340.993103	-70.725372	14.775435	-4.549929
341.443329	-13.605341	2.368707	67.380974
341.893555	-53.335133	81.726685	-49.240868
342.343689	-48.367363	-2.594633	-2.068192
342.793793	26.097515	49.500305	52.505875
343.243866	-1.195390	-10.040493	12.820714
343.693878	3.767967	2.368707	-69.114494
344.143890	-11.123223	9.813137	-36.823387
344.593842	-65.756126	136.224396	2.895239
345.043732	-23.535265	74.291382	47.546593
345.493591	-55.819035	7.331765	27.705740
345.943359	-21.052593	59.417999	12.820714
346.393158	-55.819035	84.204964	-24.408400
346.842896	1.286340	69.334038	-26.891212
347.292542	-13.605341	126.319366	-39.306591
347.742218	-28.500927	44.540775	-2.068192
348.191803	40.979210	96.594536	-69.114494
348.641357	-50.851192	22.218170	-59.176838
349.090881	-40.916641	111.458847	-59.176838
349.540314	-55.819035	84.204964	7.858117
349.989777	-18.570162	193.146866	-66.629890
350.439148	-55.819035	262.372711	-56.692650
350.888489	-16.087700	582.788574	-19.443220
351.337799	-53.335133	960.367188	-69.114494
351.787048	-60.787434	1552.148315	-66.629890
352.236267	-50.851192	2081.677979	-26.891212
352.685425	-80.664864	2252.637939	-19.443220
353.134552	-40.916641	2146.730713	-71.599205
353.583649	-58.303181	1818.548950	-74.083893
354.032684	-135.363297	1323.781616	-29.374132
354.481659	-53.335133	894.317383	-2.068192
354.930634	-63.271660	717.877747	-14.478327
355.379517	-50.851192	668.785889	-71.599205
355.828430	75.688812	415.386169	-136.238113
356.277222	-11.123223	449.886719	-41.790035
356.726013	-30.983778	437.567322	10.339468
357.174774	8.730772	375.934174	-31.857023
357.623444	-50.851192	412.921112	-93.966003
358.072113	-16.087700	361.133423	-16.960720
358.520721	-13.605341	457.277130	-21.925690
358.969299	-43.400158	348.796875	30.186123
359.417786	-18.570162	375.934174	-4.549929
359.866302	-120.440453	427.709869	-2.068192
360.314697	-48.367363	375.934174	-9.513986
360.763123	-115.466934	440.031158	-69.114494
361.211456	-88.120804	422.780579	-11.996171
361.659760	-45.883778	373.467590	-2.068192
362.108032	-50.851192	383.333374	-121.315033
362.556244	-30.983778	356.198975	-44.273586
363.004456	6.249354	341.393646	-59.176838
363.452576	-8.641074	417.851166	-76.568817
363.900696	8.730772	454.813934	-26.891212
364.348663	-90.606194	710.516113	-4.549929
364.796722	-38.433235	1304.314697	10.339468
365.244690	-13.605341	1775.016235	7.858117
365.692596	-93.091835	1864.475098	-111.368423
366.140472	16.174267	1447.766357	15.301722
366.588287	-8.641074	945.694519	-84.024094
367.036102	63.294918	749.768372	10.339468
367.483826	1.286340	479.443848	-66.629890
367.931549	-88.120804	427.709869	0.413576
368.379181	-35.950069	378.400665	7.858117
368.826843	-45.883778	383.333374	-59.176838
369.274384	-35.950069	452.350372	-21.925690
369.721924	-70.725372	425.245270	2.895239
370.169403	-68.240692	474.518494	-41.790035
370.616821	-60.787434	479.443848	-49.240868
371.064270	-58.303181	435.103088	-74.083893
371.511566	-85.635391	417.851166	-31.857023
371.958923	-68.240692	449.886719	-54.208710
372.406158	-93.091835	501.602966	-49.240868
372.853424	36.019108	447.422974	-9.513986
373.300568	3.767967	511.448914	-59.176838
373.747711	-103.035301	494.217346	-76.568817
374.194794	-28.500927	521.293640	-9.513986
374.641846	-80.664864	631.943420	-34.340149
375.088898	-75.694908	617.200806	-54.208710
375.535828	18.655268	820.855652	-69.114494
375.982758	-60.787434	1033.683594	-49.240868
376.429596	6.249354	1311.615601	-34.340149
376.876465	-38.433235	1949.009521	-4.549929
377.323242	-21.052593	2454.471924	30.186123
377.769989	-55.819035	2856.804443	-34.340149
378.216675	-35.950069	2933.243652	40.107033
378.663330	38.499279	2880.698242	-24.408400
379.109985	28.578102	2763.560059	-31.857023
379.556519	-38.433235	2401.655029	-86.509453
380.003052	33.538830	1922.450928	-11.996171
380.449524	-83.150078	1396.738403	-84.024094
380.895996	-85.635391	1138.640991	-71.599205
381.342377	-105.521469	847.800415	-31.857023
381.788727	16.174267	641.770203	-81.538857
382.235046	-40.916641	550.818359	-34.340149
382.681274	-60.787434	491.755280	-21.925690
383.127533	-35.950069	496.679321	-11.996171
383.573669	-28.500927	508.987518	-4.549929
384.019836	-112.980476	440.031158	-36.823387
384.465912	-73.210014	417.851166	-21.925690
384.911957	3.767967	398.128967	32.666542
385.357971	-50.851192	435.103088	42.587036
385.803925	-33.466869	385.799591	-26.891212
386.249847	-55.819035	479.443848	-7.031905
386.695679	-35.950069	380.867065	-29.374132
387.141541	-35.950069	508.987518	-34.340149
387.587311	13.693295	479.443848	-24.408400
388.033051	-45.883778	422.780579	20.263695
388.478729	38.499279	489.293396	10.339468
388.924408	-1.195390	442.495209	5.376663
389.369995	-18.570162	432.638794	-9.513986
389.815552	-53.335133	395.663208	-29.374132
390.261078	-120.440453	484.368805	-19.443220
390.706543	-43.400158	444.959137	10.339468
391.152008	-73.210014	454.813934	2.895239
391.597351	-1.195390	533.597168	-11.996171
392.042725	-11.123223	496.679321	-46.757107
392.487976	-95.577576	444.959137	-7.031905
392.933289	-58.303181	469.593048	-19.443220
393.378479	-35.950069	474.518494	-29.374132
393.823639	-55.819035	462.203766	-71.599205
394.268768	-43.400158	484.368805	5.376663
394.713837	-30.983778	558.197327	-14.478327
395.158905	18.655268	587.705750	-46.757107
395.603851	-6.159030	533.597168	22.744390
396.048798	-45.883778	449.886719	-61.661121
396.493683	-60.787434	553.278198	-51.724735
396.938568	-73.210014	494.217346	-21.925690
397.383392	-63.271660	558.197327	-24.408400
397.828156	-45.883778	582.788574	-16.960720
398.272888	-95.577576	661.418945	-21.925690
398.717560	-63.271660	614.743347	0.413576
399.162201	-78.179901	624.572693	-34.340149
399.606781	-35.950069	575.412109	-34.340149
400.051361	-21.052593	607.370667	15.301722
400.495819	-100.549232	555.737915	-19.443220
400.940308	-30.983778	582.788574	20.263695
401.384705	-30.983778	526.215149	27.705740
401.829102	-26.018044	580.329834	72.338608
402.273438	-38.433235	639.313660	109.507156
402.717682	6.249354	592.622314	102.075279
403.161926	1.286340	609.828186	295.010986
403.606110	-16.087700	597.538818	963.330811
404.050293	-26.018044	1011.696716	2709.034912
404.494385	-45.883778	1404.030029	4676.240234
404.938446	-50.851192	1484.194702	5525.638184
405.382477	-58.303181	1379.721436	4441.140137
405.826447	-112.980476	994.590942	2747.321777
406.270386	-65.756126	776.741272	1850.487549
406.714233	-21.052593	673.696777	1380.237061
407.158081	36.019108	695.790710	970.665649
407.601868	-63.271660	737.504517	850.769104
408.045624	-26.018044	818.405518	855.666687
408.489319	-1.195390	933.465271	642.291138
408.933014	3.767967	1097.164185	507.048248
409.376617	-28.500927	1731.459961	391.254700
409.820190	-43.400158	3195.546387	272.779877
410.263702	-13.605341	5146.834473	248.069290
410.707184	-70.725372	6343.074219	144.177368
411.150635	-68.240692	6479.639648	82.252380
411.594025	-55.819035	5604.389160	203.565704
412.037384	-23.535265	4922.075195	191.197937
412.480682	38.499279	4240.416016	196.145187
412.923981	-75.694908	3514.146484	210.985336
413.367126	-53.335133	2823.342529	74.817139
413.810333	-26.018044	2173.219727	139.225632
414.253479	8.730772	1612.771851	206.039017
414.696533	-13.605341	1136.201782	186.250015
415.139587	6.249354	948.140198	228.294052
415.582581	-33.466869	811.054688	139.225632
416.025543	23.616825	636.856995	144.177368
416.468414	-35.950069	634.400269	292.541229
416.911285	-40.916641	644.226379	290.071350
417.354065	-40.916641	622.115479	262.896973
417.796875	-6.159030	681.062134	307.358093
418.239594	-16.087700	479.443848	220.876511
418.682281	-95.577576	587.705750	235.710434
419.124908	-65.756126	528.675903	297.480652
419.567505	73.210320	617.200806	329.576935
420.010071	-26.018044	531.136597	366.590637
420.452545	-68.240692	627.029541	265.367645
420.895020	-30.983778	565.575745	290.071350
421.337372	-63.271660	538.518066	314.765320
421.779785	-53.335133	555.737915	369.057465
422.222107	-48.367363	506.526245	322.171448
422.664368	-78.179901	516.371460	312.296326
423.106628	-90.606194	548.358398	433.161652
423.548798	-30.983778	649.139099	376.457489
423.990967	-23.535265	658.963074	398.652100
424.433044	-8.641074	624.572693	381.390381
424.875092	-50.851192	516.371460	423.303528
425.317078	-68.240692	617.200806	361.656891
425.759064	-8.641074	634.400269	418.373871
426.200989	-55.819035	695.790710	408.513763
426.642853	-40.916641	631.943420	521.815491
427.084686	-60.787434	712.970032	470.115356
427.526459	-6.159030	550.818359	534.119202
427.968201	23.616825	619.658203	499.663513
428.409912	-48.367363	720.331421	524.276428
428.851563	11.212086	705.608215	514.432434
429.293121	-115.466934	710.516113	575.933777
429.734711	-108.007599	749.768372	573.474792
430.176239	1.286340	649.139099	605.434082
430.617706	-8.641074	666.330322	566.097534
431.059113	-68.240692	698.245239	580.851501
431.500488	-43.400158	683.517151	541.500061
431.941833	-55.819035	676.151794	556.259583
432.383087	-35.950069	614.743347	519.354492
432.824341	-58.303181	725.238525	681.583008
433.265533	-1.195390	688.427002	715.944580
433.706726	-43.400158	717.877747	821.375427
434.147827	-95.577576	757.125732	977.999512
434.588867	-68.240692	882.078918	1698.080688
435.029877	-3.677091	1187.406982	4582.259277
435.470825	8.730772	2420.864746	10436.232422
435.911804	-73.210014	3483.281006	14837.322266
436.352661	13.693295	3409.642090	15127.285156
436.793518	-117.953644	2464.072021	10404.770508
437.234283	-45.883778	1975.560059	7022.608887
437.675049	-13.605341	1649.123535	5355.315918
438.115723	31.058451	1184.969360	3962.349609
438.556396	-21.052593	1060.547729	2469.380615
438.997040	-45.883778	1119.125488	1523.547607
439.437561	-38.433235	1028.798340	1073.273315
439.878113	-28.500927	1206.904297	867.909790
440.318573	-21.052593	1028.798340	897.283875
440.759033	-40.916641	1075.196655	818.925354
441.199341	-40.916641	1172.780518	809.124146
441.639709	-40.916641	1126.444458	765.002319
442.079956	6.249354	1138.640991	765.002319
442.520264	-68.240692	1202.030396	686.492981
442.960510	38.499279	1194.719116	821.375427
443.400604	28.578102	1233.704712	723.305359
443.840759	-53.335133	1316.482056	765.002319
444.280762	1.286340	1282.408325	814.024902
444.720825	-53.335133	1170.342529	872.806091
445.160767	-45.883778	1099.604614	772.357788
445.600739	-90.606194	1153.274170	836.073853
446.040558	-18.570162	1141.080078	767.454285
446.480438	-93.091835	1131.323120	831.174622
446.920258	-90.606194	1209.341187	750.288757
447.359955	-1.195390	1233.704712	828.724915
447.799713	3.767967	1262.930908	730.665588
448.239319	-8.641074	1199.593262	850.769104
448.678955	58.336536	1389.445679	853.218079
449.118500	-65.756126	1663.659912	718.398376
449.558014	-28.500927	2074.447021	791.968994
449.997498	-68.240692	3090.709961	799.321838
450.436951	8.730772	5867.390625	794.420044
450.876343	45.939041	10570.519531	821.375427
451.315674	-73.210014	15486.738281	774.809570
451.754974	-80.664864	18438.767578	831.174622
452.194183	-50.851192	18021.242188	799.321838
452.633392	-48.367363	15993.146484	811.574585
453.072510	-33.466869	14227.466797	752.741211
453.511688	-28.500927	12223.409180	774.809570
453.950684	-88.120804	10420.025391	791.968994
454.389740	-53.335133	8599.638672	855.666687
454.828735	-58.303181	6904.587402	796.870972
455.267639	-75.694908	5125.781738	848.320068
455.706543	36.019108	3758.368408	791.968994
456.145325	-43.400158	2837.684570	688.947571
456.584137	-70.725372	2062.393799	806.673645
457.022858	-6.159030	1622.467285	679.127930
457.461578	-38.433235	1340.811157	755.193420
457.900208	16.174267	1163.028076	701.220337
458.338867	-16.087700	1072.755249	674.217468
458.777405	-63.271660	967.702087	728.212280
459.215912	-38.433235	938.357300	831.174622
459.654388	-33.466869	972.591736	742.930603
460.092773	-58.303181	806.153992	720.851990
460.531189	-90.606194	803.703369	742.930603
460.969513	-68.240692	764.482056	826.275085
461.407806	-33.466869	710.516113	701.220337
461.846008	-45.883778	641.770203	816.475159
462.284241	13.693295	656.507385	691.402283
462.722351	-3.677091	614.743347	713.490723
463.160461	-68.240692	803.703369	745.383362
463.598541	6.249354	656.507385	703.674683
464.036530	-43.400158	612.285767	723.305359
464.474518	-26.018044	725.238525	769.906250
464.912384	-3.677091	705.608215	801.772644
465.350281	-35.950069	693.336182	674.217468
465.788086	-8.641074	825.755554	782.164185
466.225891	43.459179	1038.568848	607.891907
466.663605	-38.433235	1262.930908	791.968994
467.101318	-50.851192	1323.781616	767.454285
467.539001	-40.916641	1360.268799	706.128601
467.976563	26.097515	1304.314697	745.383362
468.414124	-30.983778	1070.313843	723.305359
468.851593	21.136166	945.694519	735.571960
469.289063	-43.400158	960.367188	659.484192
469.726440	-63.271660	911.447327	698.765991
470.163849	11.212086	813.505066	679.127930
470.601135	-11.123223	889.422302	664.395691
471.038422	-120.440453	823.305603	691.402283
471.475677	-21.052593	766.934082	720.851990
471.912811	-23.535265	759.578064	632.464722
472.350006	43.459179	788.998047	676.672729
472.787048	-53.335133	855.147400	772.357788
473.224121	-33.466869	752.220947	796.870972
473.661072	36.019108	752.220947	769.906250
474.098053	8.730772	752.220947	664.395691
474.534943	-13.605341	744.863037	794.420044
474.971802	1.286340	943.249084	750.288757
475.408630	-28.500927	1053.222168	760.098022
475.845367	-33.466869	1099.604614	769.906250
476.282104	-60.787434	860.044922	799.321838
476.718750	6.249354	793.900024	765.002319
477.155426	-65.756126	872.286926	649.660217
477.591949	31.058451	742.410461	779.712708
478.028503	-55.819035	710.516113	750.288757
478.464966	-65.756126	764.482056	637.377991
478.901428	-23.535265	744.863037	806.673645
479.337860	21.136166	867.390259	855.666687
479.774170	-53.335133	835.554077	804.223267
480.210510	13.693295	757.125732	921.752991
480.646698	-38.433235	722.785034	904.625610
481.082947	1.286340	771.837830	1156.230103
481.519073	-38.433235	867.390259	1158.668335
481.955200	-33.466869	781.644104	1163.545166
482.391266	-35.950069	921.233948	1491.993408
482.827301	-73.210014	811.054688	1661.750977
483.263306	-50.851192	860.044922	1831.150024
483.699188	8.730772	779.192566	2349.316162
484.135101	-60.787434	833.104553	2598.871338
484.570923	-23.535265	909.000488	2991.040039
485.006744	11.212086	955.476624	3388.757080
485.442413	-48.367363	972.591736	3761.238770
485.878174	-73.210014	940.803223	4351.672852
486.313782	-95.577576	928.572876	4929.602539
486.749390	-38.433235	975.036438	5175.395508
487.184998	-70.725372	975.036438	5425.341309
487.620453	-105.521469	904.106384	5572.259766
488.055939	-53.335133	1001.922302	5474.333984
488.491333	-55.819035	916.340698	5434.674805
488.926727	-68.240692	982.369812	5149.669922
489.362030	13.693295	1084.960815	5011.591309
489.797302	-45.883778	1060.547729	4854.590820
490.232513	-58.303181	1087.401733	4713.810547
490.667755	-13.605341	989.702698	4368.159180
491.102905	-11.123223	1087.401733	4191.392578
491.537964	-6.159030	1060.547729	4203.185547
491.973022	-21.052593	1194.719116	4054.497314
492.407990	-23.535265	1075.196655	3801.491699
492.842957	-35.950069	1121.565186	3737.553711
493.277832	-103.035301	1067.872437	3505.154053
493.712738	-38.433235	1082.519775	3479.036133
494.147491	13.693295	1114.245728	3093.599365
494.582275	-38.433235	1092.283325	3010.128906
495.017029	-30.983778	1131.323120	2943.301025
495.451660	-6.159030	1199.593262	2833.411621
495.886292	-45.883778	1097.164185	2728.180420
496.320831	-60.787434	1321.348633	2663.548096
496.755402	48.418663	1588.527954	2445.380859
497.189850	-85.635391	2190.072266	2346.913330
497.624298	-35.950069	3333.571289	2245.931641
498.058655	-33.466869	5095.365234	2106.288574
498.493042	-80.664864	5643.992676	1918.133423
498.927368	-50.851192	5324.463379	1881.901367
499.361572	60.815777	4056.357666	1707.765991
499.795807	-58.303181	3321.680176	1671.440674
500.229919	-28.500927	2725.279541	1593.891602
500.664063	-43.400158	2271.880371	1462.854980
501.098083	-58.303181	1743.561401	1324.297974
501.532104	3.767967	1416.181519	1178.173340
501.966064	-100.549232	1335.945923	1109.883301
502.399994	-26.018044	1223.960327	973.110474
502.833893	-45.883778	1155.712769	926.645569
503.267700	-28.500927	1265.365601	850.769104
503.701477	-40.916641	1148.396606	865.461304
504.135193	-70.725372	1106.925659	799.321838
504.568909	16.174267	1136.201782	681.583008
505.002502	-18.570162	1060.547729	684.038025
505.436127	-117.953644	1133.762573	566.097534
505.869629	28.578102	1102.045166	588.227173
506.303162	-93.091835	1109.365845	543.960266
506.736603	-90.606194	1033.683594	467.652374
507.169983	-108.007599	1065.430908	440.553955
507.603363	-78.179901	1070.313843	551.340271
508.036621	-16.087700	1138.640991	359.189728
508.469940	-50.851192	1192.281738	445.481903
508.903107	-95.577576	1241.012451	484.890991
509.336304	-75.694908	1219.087524	494.739716
509.769379	-48.367363	1182.531738	502.125031
510.202484	-18.570162	1270.235474	479.966309
510.635529	-35.950069	1416.181519	403.582977
511.068481	-21.052593	1394.307617	354.255127
511.501434	-43.400158	1416.181519	349.320160
511.934265	31.058451	1411.321289	354.255127
512.367126	-68.240692	1350.540405	415.909210
512.799927	-135.363297	1408.890991	314.765320
513.232605	-26.018044	1287.277100	317.233948
513.665344	-26.018044	1316.482056	410.979004
514.097961	-21.052593	1262.930908	403.582977
514.530579	-38.433235	1547.296631	307.358093
514.963135	-68.240692	1881.388916	403.582977
515.395691	13.693295	2319.967041	359.189728
515.828064	-55.819035	2310.352051	285.131348
516.260498	-103.035301	1939.352905	327.108551
516.692871	-48.367363	1857.225342	329.576935
517.125183	40.979210	1733.880493	334.513184
517.557373	-95.577576	1678.193359	208.512222
517.989624	-58.303181	1629.738159	270.309235
518.421753	-65.756126	1617.619629	223.349121
518.853943	3.767967	1484.194702	265.367645
519.286072	-98.063286	1641.854614	210.985336
519.718018	6.249354	1707.252319	262.896973
520.150024	-3.677091	1784.692017	230.766113
520.581909	-63.271660	1719.357056	141.701553
521.013855	-33.466869	1835.472046	262.896973
521.445679	-8.641074	1849.974854	243.126205
521.877502	-30.983778	1871.724365	166.454620
522.309204	-48.367363	1806.458740	183.775909
522.740906	-13.605341	1828.219849	134.273499
523.172546	-70.725372	1837.889404	178.827652
523.604187	-21.052593	1779.854370	223.349121
524.035767	-48.367363	1712.094482	201.092285
524.467224	38.499279	1540.018188	166.454620
524.898682	-50.851192	1506.043457	228.294052
525.330078	-40.916641	1421.041748	173.878754
525.761475	-40.916641	1462.339966	240.654388
526.192749	-26.018044	1365.132202	215.930984
526.624023	-70.725372	1335.945923	240.654388
527.055237	-6.159030	1331.080444	257.954803
527.486389	18.655268	1362.700684	168.929428
527.917542	-40.916641	1374.858643	223.349121
528.348572	16.174267	1377.290039	265.367645
528.779663	-85.635391	1472.053955	314.765320
529.210571	-35.950069	1527.886108	356.722473
529.641541	-23.535265	1639.431519	280.191223
530.072388	-85.635391	1692.724121	262.896973
530.503235	23.616825	1823.384399	272.779877
530.934082	-28.500927	1874.140625	336.981293
531.364746	-75.694908	1956.251465	327.108551
531.795532	-40.916641	2163.588135	312.296326
532.226135	-18.570162	2600.759033	438.089874
532.656738	-6.159030	2997.692627	477.503723
533.087280	-13.605341	3428.650635	718.398376
533.517822	48.418663	4950.193848	933.984253
533.948242	-28.500927	8535.893555	1039.087036
534.378662	-13.605341	20527.914063	904.625610
534.809082	-58.303181	40140.511719	919.306458
535.239319	8.730772	58752.703125	1002.440857
535.669617	-103.035301	64672.980469	1046.413818
536.099792	-6.159030	60678.925781	1119.643066
536.529968	-68.240692	52702.558594	1321.864868
536.960083	-43.400158	46051.652344	1647.214600
537.390137	-33.466869	40421.832031	2026.735352
537.820190	-13.605341	35558.386719	2510.166016
538.250183	13.693295	30081.865234	3107.901611
538.680115	-11.123223	25659.267578	3498.031494
539.109985	-23.535265	21137.125000	4153.645508
539.539795	-23.535265	17479.056641	4889.758789
539.969543	-83.150078	15025.800781	6410.709473
540.399292	-43.400158	12185.617188	8123.587402
540.828979	-70.725372	9518.382813	10956.668945
541.258606	-68.240692	6932.252441	14243.350586
541.688171	-40.916641	5165.544922	18452.345703
542.117737	-45.883778	3952.392578	21052.083984
542.547302	-68.240692	3059.714111	21435.869141
542.976685	-38.433235	2579.190430	21490.720703
543.406128	-65.756126	2175.627441	21499.496094
543.835388	-63.271660	1903.130127	21769.453125
544.264771	-103.035301	1707.252319	21852.886719
544.693970	-26.018044	1557.000000	21703.597656
545.123230	-68.240692	2026.223877	22809.087891
545.552307	26.097515	5753.416016	29610.462891
545.981506	-60.787434	10325.610352	38658.832031
546.410583	-21.052593	11666.816406	44509.023438
546.839539	-63.271660	8088.835938	39278.585938
547.268555	-26.018044	5506.489746	29172.003906
547.697449	-45.883778	4663.998535	24867.330078
548.126282	-55.819035	4053.996094	22872.908203
548.555054	-21.052593	3166.965576	21089.353516
548.983887	-16.087700	2129.869873	18371.464844
549.412598	40.979210	1557.000000	15465.266602
549.841309	-58.303181	1481.766602	12676.809570
550.269958	-16.087700	1270.235474	10781.887695
550.698486	-73.210014	1209.341187	9254.068359
551.127075	-53.335133	1287.277100	8335.841797
551.555481	-6.159030	1124.004883	7335.500488
551.983948	-105.521469	1289.711182	6591.124512
552.412292	-60.787434	1508.470703	5893.455566
552.840698	-43.400158	1724.198486	5133.295898
553.268860	-35.950069	1811.295166	4605.761719
553.697205	-16.087700	1712.094482	4113.524902
554.125366	-63.271660	1576.403442	3531.265625
554.553467	-45.883778	1399.168823	3165.088867
554.981628	-53.335133	1343.243652	2778.418945
555.409607	-53.335133	1377.290039	2538.944580
555.837646	-33.466869	1260.495850	2147.241699
556.265564	-50.851192	1270.235474	1881.901367
556.693481	36.019108	1197.156128	1579.342773
557.121338	-117.953644	1145.958008	1433.705933
557.549133	6.249354	1165.466187	1212.294678
557.976929	18.655268	1143.519043	1209.857910
558.404602	18.655268	1233.704712	963.330811
558.832275	-60.787434	1316.482056	870.358093
559.259888	-21.052593	1184.969360	863.012817
559.687439	-21.052593	1287.277100	911.966248
560.114929	-48.367363	1299.447144	789.517822
560.542419	-105.521469	1158.151245	723.305359
560.969788	-28.500927	1211.777954	708.582703
561.397156	6.249354	1219.087524	681.583008
561.824524	-63.271660	1216.651001	630.007813
562.251770	-11.123223	1189.844360	607.891907
562.679016	-40.916641	1214.214355	546.420349
563.106140	-63.271660	1223.960327	539.039795
563.533264	-33.466869	1287.277100	556.259583
563.960327	-16.087700	1199.593262	443.017975
564.387329	-83.150078	1223.960327	378.923981
564.814331	-6.159030	1233.704712	425.768188
565.241272	-8.641074	1350.540405	447.945709
565.668213	-40.916641	1377.290039	467.652374
566.094971	-45.883778	1493.906128	393.720581
566.521790	-120.440453	1866.891479	489.815521
566.948425	-95.577576	2368.027832	381.390381
567.375183	40.979210	3150.289795	336.981293
567.801819	-23.535265	6023.060547	364.123932
568.228394	-43.400158	11553.053711	364.123932
568.654846	-43.400158	18552.441406	435.625641
569.081421	85.602165	19742.058594	398.652100
569.507874	-58.303181	16242.855469	292.541229
569.934265	21.136166	11479.400391	322.171448
570.360596	-117.953644	9020.064453	364.123932
570.786865	-100.549232	7523.303223	282.661194
571.213074	26.097515	5543.794434	327.108551
571.639282	-78.179901	3862.522705	240.654388
572.065430	-73.210014	2627.114258	314.765320
572.491516	6.249354	2031.047241	257.954803
572.917603	-1.195390	1653.969360	168.929428
573.343567	-50.851192	1544.870605	341.917236
573.769531	-60.787434	1416.181519	280.191223
574.195435	-23.535265	1304.314697	344.385071
574.621277	-120.440453	1321.348633	336.981293
575.047119	-73.210014	1297.013428	322.171448
575.472839	8.730772	1350.540405	539.039795
575.898560	-50.851192	1552.148315	477.503723
576.324158	-30.983778	2084.088379	1336.462036
576.749817	-73.210014	2995.306152	2885.983154
577.175293	-95.577576	3328.814941	4165.442871
577.600830	-8.641074	3016.780029	4445.847168
578.026306	-21.052593	2464.072021	3115.051758
578.451721	-70.725372	2890.254150	3098.366943
578.877136	-3.677091	3502.275879	4358.738770
579.302429	-40.916641	3656.480957	5602.553711
579.727661	-28.500927	3155.054443	5860.909180
580.152832	-78.179901	2396.851807	4542.293945
580.578064	-16.087700	2223.767090	4002.526367
581.003113	16.174267	2269.474854	3595.329834
581.428223	-1.195390	2139.505127	3545.505371
581.853271	-65.756126	1811.295166	3540.759521
582.278198	-55.819035	1673.349121	3604.817627
582.703125	11.212086	1738.721069	3801.491699
583.127930	-6.159030	1658.814697	3832.262695
583.552795	-45.883778	1842.723877	3997.800293
583.977539	-21.052593	2093.728760	4153.645508
584.402283	-28.500927	2202.107422	4115.885254
584.826965	13.693295	2377.636475	4030.877197
585.251587	-21.052593	2808.998291	4059.220459
585.676208	-63.271660	2978.600830	3962.349609
586.100647	-73.210014	3559.240234	3879.585449
586.525208	-48.367363	4454.761230	4000.163574
586.949524	26.097515	6088.058105	4563.453613
587.373962	-60.787434	8947.433594	5037.347168
587.798218	-105.521469	15552.540039	5268.895020
588.222534	31.058451	24073.685547	4751.369141
588.646729	-30.983778	27839.000000	4266.848145
589.070984	-80.664864	25825.445313	3673.577393
589.495117	-60.787434	25440.001953	3384.003174
589.919128	-75.694908	32886.281250	3253.188232
590.343201	-98.063286	40771.761719	3126.967529
590.767151	-18.570162	43900.074219	2993.426270
591.191101	-33.466869	42083.140625	2730.573242
591.614990	-63.271660	39258.015625	2759.283203
592.038818	-53.335133	36366.710938	2778.418945
592.462524	-65.756126	34324.203125	3155.560059
592.886292	-43.400158	30711.714844	3495.657471
593.310059	3.767967	27325.580078	3742.291260
593.733582	-73.210014	24298.890625	3782.551025
594.157227	-45.883778	21466.121094	3424.403076
594.580750	-55.819035	19315.509766	3122.201416
595.004272	-93.091835	17181.654297	2701.854004
595.427673	-73.210014	15857.284180	2558.125732
595.851074	-68.240692	14524.623047	2390.156250
596.274353	-18.570162	13548.225586	2060.494141
596.697632	-60.787434	12645.289063	1956.763672
597.120911	-85.635391	11646.746094	1731.973633
597.544067	-40.916641	10938.276367	1724.712158
597.967224	-30.983778	10264.882813	1736.814331
598.390320	-40.916641	9588.458984	1843.236450
598.813354	-55.819035	9128.939453	1961.590942
599.236328	31.058451	8672.453125	2118.335693
599.659241	-8.641074	8305.708984	2250.742920
600.082153	-1.195390	8077.412109	2327.687500
600.505005	-16.087700	7357.989258	2212.245117
600.927795	-65.756126	6842.320313	1985.724609
601.350525	-23.535265	6720.003906	1736.814331
601.773254	-38.433235	6292.113281	1639.945557
602.195862	-21.052593	6210.995605	1513.839844
602.618408	-21.052593	5872.040527	1363.216431
603.040955	-38.433235	5688.239746	1278.055908
603.463440	-13.605341	5322.128418	1117.203247
603.885925	8.730772	5273.072266	1100.122559
604.308350	-3.677091	4936.135254	936.430359
604.730652	38.499279	4917.388184	992.665222
605.152893	-13.605341	4617.012695	1061.065552
605.575195	-16.087700	4534.740234	1083.037720
605.997375	-23.535265	4282.846191	1146.475220
606.419495	-28.500927	4091.777832	1222.040894
606.841553	-108.007599	4072.888428	1404.545776
607.263672	-95.577576	3860.156738	1525.973999
607.685608	-35.950069	3812.825439	1625.405273
608.107605	-80.664864	3537.882324	1886.733398
608.529480	-70.725372	3582.965820	2334.897949
608.951294	-78.179901	3473.782227	2845.362061
609.373108	-135.363297	3473.782227	3578.724365
609.794800	-23.535265	3440.529053	4840.520508
610.216553	-78.179901	3580.593994	7165.345215
610.638123	-40.916641	3563.986084	11752.005859
611.059753	-88.120804	3412.018066	18227.189453
611.481262	-16.087700	3138.376709	24776.669922
611.902832	-65.756126	3021.551514	26324.779297
612.324219	-23.535265	3016.780029	23747.595703
612.745605	-85.635391	2856.804443	20116.738281
613.166931	-28.500927	2730.065430	17787.792969
613.588196	-48.367363	2763.560059	16797.113281
614.009460	40.979210	2634.300293	15822.681641
614.430664	-3.677091	2550.424561	14881.272461
614.851807	-50.851192	2942.794434	13303.422852
615.272827	-53.335133	3680.185059	11598.148438
615.693909	-75.694908	4931.448730	9853.115234
616.114929	-73.210014	5118.763672	8032.191895
616.535889	-18.570162	5041.532227	6835.889160
616.956787	48.418663	3720.468506	5884.156738
617.377563	-53.335133	3326.436768	5095.862305
617.798340	-28.500927	2988.147217	4507.017578
618.219055	-88.120804	2980.987793	3872.488281
618.639832	-167.709503	2598.363037	3540.759521
619.060364	-8.641074	2348.806396	3229.385498
619.481018	-65.756126	2108.187012	2950.463623
619.901611	-35.950069	2084.088379	2854.921631
620.322083	11.212086	1874.140625	2797.550049
620.742493	-58.303181	1847.557861	2677.915039
621.162842	-38.433235	1876.556885	2797.550049
621.583191	-55.819035	1801.622192	2641.994629
622.003418	-48.367363	1610.347778	2756.891357
622.423706	-105.521469	1736.300903	2749.714600
622.843872	-63.271660	1683.036987	2776.026855
623.264038	-1.195390	1639.431519	2831.020996
623.684143	-78.179901	1544.870605	2737.751953
624.104126	-40.916641	1537.591797	2909.869629
624.524170	-65.756126	1637.008179	2814.286865
624.944031	18.655268	1520.605835	2871.648438
625.364014	-35.950069	1450.195557	2771.243896
625.783752	-30.983778	1416.181519	2823.849609
626.203552	-38.433235	1435.619995	2838.192139
626.623230	-30.983778	1544.870605	2778.418945
627.042969	-65.756126	1428.331299	2771.243896
627.462585	-40.916641	1554.574219	2651.574463
627.882141	-8.641074	1418.611694	2589.285645
628.301697	-23.535265	1311.615601	2481.378174
628.721130	-11.123223	1372.427246	2303.649658
629.140625	-26.018044	1328.647705	2260.364502
629.559998	-80.664864	1311.615601	2337.301025
629.979309	-103.035301	1389.445679	2409.368408
630.398560	28.578102	1267.800537	2680.308838
630.817810	13.693295	1248.319214	3134.116943
631.237000	-11.123223	1197.156128	3507.528320
631.656067	-18.570162	1206.904297	3338.831787
632.075195	36.019108	1177.656372	2869.258789
632.494202	-33.466869	1221.523926	2310.861816
632.913208	13.693295	1204.467407	2087.010010
633.332092	-33.466869	1148.396606	1874.653198
633.750977	-73.210014	1209.341187	1428.846558
634.169739	-30.983778	1055.664063	1394.823120
634.588562	-6.159030	1121.565186	1170.859741
635.007263	23.616825	1097.164185	929.091858
635.425964	-65.756126	1004.366028	757.645752
635.844543	-85.635391	1028.798340	738.024780
636.263123	-75.694908	1097.164185	588.227173
636.681641	-103.035301	960.367188	548.880371
637.100037	-23.535265	977.481079	529.197998
637.518494	1.286340	1124.004883	386.322571
637.936829	-53.335133	1048.337891	452.872803
638.355164	-33.466869	997.034607	418.373871
638.773438	-88.120804	1004.366028	396.186401
639.191650	-58.303181	987.258545	336.981293
639.609863	-80.664864	955.476624	415.909210
640.027893	-117.953644	957.921875	317.233948
640.445984	-53.335133	1001.922302	334.513184
640.863953	-26.018044	852.698486	339.449310
641.281921	-38.433235	935.911377	302.419434
641.699829	-3.677091	1006.809692	356.722473
642.117676	-26.018044	918.787354	267.838501
642.535461	-58.303181	948.140198	349.320160
642.953247	-18.570162	899.211914	371.524231
643.370972	-18.570162	872.286926	297.480652
643.788635	-50.851192	779.192566	290.071350
644.206177	8.730772	992.146912	418.373871
644.623718	1.286340	906.553467	351.787689
645.041260	-13.605341	953.031250	356.722473
645.458618	-28.500927	938.357300	302.419434
645.876099	-18.570162	889.422302	290.071350
646.293396	-63.271660	877.183228	312.296326
646.710693	-40.916641	825.755554	383.856384
647.127991	36.019108	950.585754	302.419434
647.545166	-16.087700	776.741272	329.576935
647.962341	40.979210	850.249512	312.296326
648.379333	-8.641074	852.698486	329.576935
648.796448	18.655268	857.596191	430.697235
649.213379	-63.271660	943.249084	425.768188
649.630310	-100.549232	850.249512	440.553955
650.047180	-70.725372	730.145081	561.178711
650.463989	21.136166	820.855652	691.402283
650.880859	-68.240692	779.192566	799.321838
651.297546	-70.725372	710.516113	809.124146
651.714233	-65.756126	747.315735	804.223267
652.130859	-16.087700	771.837830	590.685547
652.547485	-35.950069	737.504517	637.377991
652.963928	6.249354	722.785034	637.377991
653.380432	-65.756126	762.029968	622.636597
653.796814	-68.240692	815.955322	593.143921
654.213196	-48.367363	1121.565186	521.815491
654.629578	-70.725372	1917.621094	408.513763
655.045837	-60.787434	2435.269531	482.428864
655.462036	-1.195390	2495.264160	423.303528
655.878174	-70.725372	1949.009521	396.186401
656.294312	-120.440453	1680.615356	452.872803
656.710327	-95.577576	1416.181519	425.768188
657.126404	-28.500927	1335.945923	408.513763
657.542358	-13.605341	1184.969360	391.254700
657.958252	40.979210	1111.805908	415.909210
658.374084	-58.303181	970.146912	354.255127
658.789917	-8.641074	957.921875	366.590637
659.205688	-50.851192	857.596191	341.917236
659.621338	-73.210014	860.044922	327.108551
660.037048	13.693295	793.900024	243.126205
660.452637	-30.983778	649.139099	238.182465
660.868164	-68.240692	703.153992	275.250427
661.283691	-98.063286	739.957581	290.071350
661.699158	-60.787434	717.877747	260.425964
662.114502	3.767967	622.115479	413.444153
662.529846	43.459179	695.790710	482.428864
662.945129	-93.091835	693.336182	502.125031
663.360413	-6.159030	737.504517	443.017975
663.775635	-6.159030	744.863037	410.979004
664.190674	-11.123223	678.607056	435.625641
664.605835	-11.123223	622.115479	292.541229
665.020813	-6.159030	690.881714	334.513184
665.435791	1.286340	644.226379	302.419434
665.850769	8.730772	663.874634	299.949951
666.265625	-26.018044	685.972107	260.425964
666.680420	-11.123223	580.329834	265.367645
667.095215	-45.883778	690.881714	218.403793
667.509949	-108.007599	663.874634	240.654388
667.924622	-26.018044	685.972107	210.985336
668.339233	-26.018044	693.336182	285.131348
668.753784	-23.535265	627.029541	181.301697
669.168335	-73.210014	644.226379	196.145187
669.582825	13.693295	784.095520	193.671738
669.997192	-53.335133	1525.459473	240.654388
670.411560	-80.664864	3433.402100	230.766113
670.825867	-16.087700	4804.839355	218.403793
671.240173	-26.018044	4588.811523	250.540817
671.654358	-103.035301	3050.174561	166.454620
672.068481	-38.433235	2480.869385	188.724014
672.482605	36.019108	2199.700439	188.724014
672.896667	11.212086	1953.837646	198.618774
673.310669	-3.677091	1595.802124	186.250015
673.724609	-40.916641	1333.513184	240.654388
674.138489	-11.123223	960.367188	183.775909
674.552307	-38.433235	784.095520	181.301697
674.966064	-103.035301	703.153992	114.461319
675.379822	-80.664864	656.507385	109.507156
675.793579	-80.664864	735.051453	64.902000
676.207153	-28.500927	639.313660	218.403793
676.620789	-60.787434	698.245239	131.797287
677.034241	-11.123223	629.486511	126.844803
677.447754	-6.159030	597.538818	136.749619
677.861206	-38.433235	597.538818	186.250015
678.274597	-13.605341	595.080627	149.128418
678.687866	16.174267	563.116394	149.128418
679.101135	-26.018044	511.448914	203.565704
679.514404	-8.641074	513.910217	191.197937
679.927551	45.939041	523.754272	114.461319
680.340698	28.578102	528.675903	94.642494
680.753723	-30.983778	486.831146	141.701553
681.166748	-35.950069	427.709869	225.821640
681.579712	-95.577576	422.780579	129.320953
681.992615	8.730772	553.278198	67.380974
682.405457	-48.367363	469.593048	228.294052
682.818298	-53.335133	403.060150	166.454620
683.231018	3.767967	442.495209	146.652802
683.643738	-38.433235	501.602966	124.368286
684.056335	-13.605341	570.494263	104.552719
684.468994	-78.179901	705.608215	161.504974
684.881531	-11.123223	886.974609	92.164650
685.293945	-65.756126	830.654907	149.128418
685.706482	-28.500927	604.912842	201.092285
686.118774	-98.063286	501.602966	193.671738
686.531128	-40.916641	472.055939	134.273499
686.943481	-60.787434	560.656860	196.145187
687.355713	-3.677091	506.526245	317.233948
687.767883	-45.883778	462.203766	428.232758
688.179932	-48.367363	407.990692	295.010986
688.592041	-38.433235	366.067474	386.322571
689.004089	1.286340	346.329224	327.108551
689.416016	-38.433235	388.265442	317.233948
689.827881	-68.240692	531.136597	228.294052
690.239868	-13.605341	563.116394	215.930984
690.651611	-70.725372	457.277130	131.797287
691.063354	-85.635391	432.638794	183.775909
691.475098	-33.466869	338.925690	136.749619
691.886719	-63.271660	417.851166	109.507156
692.298340	-58.303181	407.990692	131.797287
692.709900	-21.052593	363.600494	62.423065
693.121460	-48.367363	292.017212	176.353241
693.532837	-80.664864	319.179199	213.458069
693.944214	-80.664864	250.016571	270.309235
694.355652	-88.120804	254.959381	307.358093
694.766846	-13.605341	222.824509	257.954803
695.178101	-23.535265	282.137360	126.844803
695.589294	-98.063286	274.726227	50.026287
696.000366	-50.851192	289.547455	7.858117
696.411438	-33.466869	301.895599	146.652802
696.822510	-88.120804	217.879288	139.225632
697.233459	-13.605341	324.116272	114.461319
697.644409	-13.605341	269.785156	25.225117
698.055298	-78.179901	316.710388	27.705740
698.466064	-1.195390	299.426117	15.301722
698.876831	58.336536	324.116272	50.026287
699.287537	-90.606194	203.041061	52.505875
699.698181	-55.819035	289.547455	27.705740
700.108826	-43.400158	284.607391	-36.823387
700.519348	-58.303181	217.879288	-36.823387
700.929810	-85.635391	225.297058	72.338608
701.340271	63.294918	227.769485	82.252380
701.750732	-110.493988	178.302673	-29.374132
702.161011	-33.466869	222.824509	62.423065
702.571350	-43.400158	304.365021	27.705740
702.981567	28.578102	245.073502	22.744390
703.391724	-18.570162	309.303375	116.938110
703.801880	-45.883778	279.667084	129.320953
704.211914	-88.120804	296.956665	107.029915
704.621948	-33.466869	262.372711	111.984283
705.031921	-8.641074	282.137360	99.597740
705.441895	-45.883778	262.372711	186.250015
705.851746	11.212086	272.255798	215.930984
706.261536	-90.606194	232.713928	332.044983
706.671265	-43.400158	294.487000	487.353302
707.081055	-40.916641	331.521545	588.227173
707.490662	-80.664864	230.241821	644.747559
707.900330	-13.605341	240.129913	686.492981
708.309814	38.499279	292.017212	642.291138
708.719299	-21.052593	235.186081	823.825134
709.128784	-21.052593	168.404495	804.223267
709.538147	-78.179901	262.372711	914.413086
709.947510	-3.677091	193.146866	887.493958
710.356750	-35.950069	185.725220	723.305359
710.766052	-55.819035	220.352005	583.310242
711.175171	-13.605341	343.861450	489.815521
711.584290	1.286340	262.372711	536.579407
711.993347	-18.570162	257.430481	647.203979
712.402405	8.730772	259.901642	767.454285
712.811401	21.136166	198.094101	738.024780
713.220276	-65.756126	148.603302	703.674683
713.629150	-26.018044	235.186081	457.799805
714.037964	-50.851192	289.547455	408.513763
714.446777	-35.950069	193.146866	312.296326
714.855408	-152.778229	277.196716	235.710434
715.264099	-65.756126	148.603302	292.541229
715.672668	-50.851192	175.828247	196.145187
716.081177	-16.087700	245.073502	99.597740
716.489746	-40.916641	175.828247	94.642494
716.898132	-8.641074	175.828247	104.552719
717.306519	65.773827	237.658112	84.730637
717.714844	-83.150078	257.430481	82.252380
718.123108	-3.677091	198.094101	54.985359
718.531372	-63.271660	269.785156	-36.823387
718.939514	-40.916641	259.901642	15.301722
719.347595	-50.851192	225.297058	111.984283
719.755676	-11.123223	198.094101	42.587036
720.163696	-18.570162	257.430481	10.339468
720.571716	-68.240692	222.824509	-29.374132
720.979614	-26.018044	185.725220	42.587036
721.387451	-127.901390	198.094101	42.587036
721.795227	-35.950069	235.186081	-9.513986
722.202942	8.730772	200.567627	25.225117
722.610718	-78.179901	282.137360	10.339468
723.018311	-16.087700	170.879211	47.546593
723.425903	-98.063286	217.879288	-9.513986
723.833374	1.286340	222.824509	-36.823387
724.240906	-40.916641	108.981689	69.859848
724.648376	-33.466869	232.713928	32.666542
725.055725	-50.851192	104.027084	2.895239
725.463013	-90.606194	170.879211	-14.478327
725.870300	31.058451	262.372711	-49.240868
726.277466	1.286340	108.981689	-26.891212
726.684631	-55.819035	183.251083	-71.599205
727.091797	23.616825	165.929657	-54.208710
727.498779	-8.641074	222.824509	-21.925690
727.905823	6.249354	151.078842	-41.790035
728.312805	-48.367363	259.901642	7.858117
728.719666	-58.303181	163.454727	-24.408400
729.126526	55.857323	165.929657	15.301722
729.533264	-1.195390	156.029465	-14.478327
729.940063	-48.367363	262.372711	-21.925690
730.346680	-85.635391	227.769485	15.301722
730.753357	-35.950069	138.700302	52.505875
731.159851	3.767967	207.987473	27.705740
731.566406	-63.271660	245.073502	-44.273586
731.972900	-26.018044	66.855148	7.858117
732.379272	-38.433235	210.460617	-2.068192
732.785645	-65.756126	254.959381	-34.340149
733.191895	-90.606194	133.748260	0.413576
733.598206	-50.851192	180.776855	-71.599205
734.004333	-8.641074	168.404495	-31.857023
734.410522	-55.819035	151.078842	-59.176838
734.816528	-16.087700	158.504700	20.263695
735.222656	-90.606194	165.929657	45.066933
735.628662	-28.500927	237.658112	10.339468
736.034546	-53.335133	205.514374	7.858117
736.440430	-80.664864	284.607391	-21.925690
736.846252	-68.240692	151.078842	-61.661121
737.252014	-80.664864	173.353714	92.164650
737.657715	6.249354	178.302673	-51.724735
738.063354	-70.725372	175.828247	-29.374132
738.468933	-21.052593	207.987473	-54.208710
738.874512	11.212086	175.828247	-111.368423
739.280029	-68.240692	101.549759	-14.478327
739.685486	-85.635391	126.319366	-31.857023
740.090881	16.174267	153.554276	-74.083893
740.496216	-48.367363	173.353714	-59.176838
740.901550	-45.883778	183.251083	-7.031905
741.306702	-18.570162	106.504440	-51.724735
741.711914	-63.271660	128.795807	-29.374132
742.117004	-40.916641	185.725220	-14.478327
742.522095	3.767967	210.460617	47.546593
742.927124	-115.466934	250.016571	32.666542
743.332031	73.210320	287.077484	-51.724735
743.737000	13.693295	210.460617	-31.857023
744.141785	-43.400158	183.251083	-11.996171
744.546631	-83.150078	66.855148	-4.549929
744.951355	-18.570162	133.748260	42.587036
745.356079	16.174267	148.603302	10.339468
745.760620	-23.535265	185.725220	-9.513986
746.165283	-1.195390	247.545151	-91.480339
746.569824	-8.641074	143.652069	17.782761
746.974243	-85.635391	143.652069	15.301722
747.378723	-21.052593	170.879211	20.263695
747.783020	-95.577576	118.889565	-29.374132
748.187378	-30.983778	146.127808	-4.549929
748.591614	-93.091835	200.567627	-64.145386
748.995850	-108.007599	123.842819	-11.996171
749.399963	21.136166	146.127808	-9.513986
749.804077	-21.052593	160.979828	-26.891212
750.208130	-108.007599	220.352005	35.146851
750.612122	3.767967	126.319366	-49.240868
751.016052	-73.210014	193.146866	47.546593
751.419922	-35.950069	165.929657	-16.960720
751.823792	-1.195390	163.454727	-29.374132
752.227478	-103.035301	84.204964	2.895239
752.631226	-85.635391	146.127808	-26.891212
753.034851	-33.466869	195.620590	-41.790035
753.438477	-58.303181	156.029465	12.820714
753.842102	-50.851192	116.412712	-11.996171
754.245544	-43.400158	203.041061	-19.443220
754.648987	21.136166	84.204964	-9.513986
755.052368	-33.466869	180.776855	15.301722
755.455750	1.286340	138.700302	-29.374132
755.859009	-75.694908	136.224396	-36.823387
756.262268	-105.521469	99.072197	-56.692650
756.665405	-95.577576	210.460617	-79.053848
757.068542	-70.725372	165.929657	54.985359
757.471680	-35.950069	151.078842	5.376663
757.874634	-21.052593	153.554276	-11.996171
758.277588	-35.950069	178.302673	-66.629890
758.680420	-53.335133	76.769966	-51.724735
759.083374	3.767967	170.879211	-66.629890
759.486084	-50.851192	123.842819	-46.757107
759.888916	-98.063286	99.072197	-116.341446
760.291504	26.097515	101.549759	42.587036
760.694214	-48.367363	66.855148	25.225117
761.096802	-26.018044	99.072197	-24.408400
761.499268	8.730772	151.078842	-7.031905
761.901733	-100.549232	151.078842	-24.408400
762.304199	-58.303181	200.567627	0.413576
762.706543	21.136166	158.504700	22.744390
763.108826	36.019108	96.594536	-34.340149
763.511108	-75.694908	106.504440	30.186123
763.913208	-70.725372	158.504700	12.820714
764.315369	-68.240692	27.179428	-7.031905
764.717529	8.730772	56.938694	12.820714
765.119568	-35.950069	37.100838	47.546593
765.521545	1.286340	94.116913	0.413576
765.923462	-112.980476	314.241486	15.301722
766.325317	-78.179901	528.675903	-46.757107
766.727112	-60.787434	513.910217	12.820714
767.128845	-93.091835	459.740509	-86.509453
767.530518	-103.035301	358.666260	-51.724735
767.932251	-120.440453	299.426117	25.225117
768.333862	-21.052593	188.199249	-59.176838
768.735413	-6.159030	292.017212	-26.891212
769.136841	-11.123223	279.667084	35.146851
769.538269	11.212086	496.679321	20.263695
769.939636	6.249354	511.448914	10.339468
770.341003	-26.018044	390.731476	-51.724735
770.742249	-63.271660	287.077484	-59.176838
771.143433	-28.500927	235.186081	-61.661121
771.544617	-16.087700	200.567627	25.225117
771.945740	-50.851192	198.094101	7.858117
772.346802	-26.018044	215.406448	-66.629890
772.747803	-23.535265	183.251083	-71.599205
773.148682	-21.052593	86.683006	-64.145386
773.549622	-98.063286	136.224396	-11.996171
773.950439	31.058451	76.769966	-24.408400
774.351196	-88.120804	131.272018	-86.509453
774.751892	-11.123223	178.302673	-21.925690
775.152588	-26.018044	61.897060	-59.176838
775.553162	-26.018044	108.981689	5.376663
775.953735	-35.950069	146.127808	-151.165054
776.354309	-88.120804	64.376160	12.820714
776.754639	-30.983778	106.504440	-7.031905
777.155090	-6.159030	89.161072	2.895239
777.555420	-35.950069	136.224396	-46.757107
777.955750	16.174267	133.748260	-64.145386
778.355896	-3.677091	108.981689	-46.757107
778.756104	-6.159030	32.140408	-31.857023
779.156189	13.693295	118.889565	20.263695
779.556274	-21.052593	74.291382	-34.340149
779.956299	-100.549232	32.140408	-64.145386
780.356201	-13.605341	148.603302	-91.480339
780.756165	-58.303181	136.224396	32.666542
781.156006	-98.063286	81.726685	-7.031905
781.555786	-65.756126	59.417999	54.985359
781.955505	-33.466869	54.459293	-71.599205
782.355225	-26.018044	128.795807	-39.306591
782.754761	-18.570162	81.726685	-96.451782
783.154358	-28.500927	29.659971	2.895239
783.553894	-93.091835	96.594536	-26.891212
783.953369	-26.018044	12.294271	35.146851
784.352783	43.459179	44.540775	-88.994911
784.752075	-28.500927	89.161072	-11.996171
785.151367	-60.787434	136.224396	17.782761
785.550598	40.979210	165.929657	-39.306591
785.949768	58.336536	69.334038	-26.891212
786.348877	-23.535265	101.549759	-41.790035
786.747986	36.019108	195.620590	-66.629890
787.147034	-13.605341	113.935760	-34.340149
787.545959	-43.400158	71.812691	5.376663
787.944885	-58.303181	116.412712	45.066933
788.343750	-38.433235	158.504700	12.820714
788.742493	-13.605341	123.842819	-31.857023
789.141235	-100.549232	170.879211	-21.925690
789.539917	-18.570162	165.929657	-24.408400
789.938538	-83.150078	141.176239	-59.176838
790.337158	-40.916641	175.828247	-29.374132
790.735718	-58.303181	17.256495	-86.509453
791.134094	-28.500927	64.376160	-64.145386
791.532532	-33.466869	39.580967	-11.996171
791.930847	-70.725372	131.272018	2.895239
792.329224	26.097515	69.334038	-34.340149
792.727417	-35.950069	108.981689	-26.891212
793.125610	-48.367363	17.256495	-7.031905
793.523682	36.019108	84.204964	27.705740
793.921753	-45.883778	12.294271	-26.891212
794.319824	-105.521469	47.020592	-26.891212
794.717773	-45.883778	47.020592	12.820714
795.115723	-112.980476	89.161072	-24.408400
795.513550	-78.179901	47.020592	79.774162
795.911377	-35.950069	24.698919	-11.996171
796.309082	-16.087700	79.248306	-2.068192
796.706787	-21.052593	138.700302	42.587036
797.104370	-80.664864	56.938694	-2.068192
797.501953	-103.035301	44.540775	47.546593
797.899536	-11.123223	42.060989	-71.599205
798.296936	-6.159030	61.897060	25.225117
798.694397	6.249354	116.412712	-26.891212
799.091736	-85.635391	81.726685	-49.240868
799.489014	-50.851192	131.272018	-21.925690
799.886230	-65.756126	113.935760	-91.480339
800.283447	-11.123223	81.726685	-49.240868
800.680542	-33.466869	54.459293	-54.208710
801.077637	-83.150078	32.140408	-61.661121
801.474670	-33.466869	106.504440	15.301722
801.871643	-73.210014	27.179428	-79.053848
802.268555	-70.725372	66.855148	-59.176838
802.665405	-85.635391	27.179428	54.985359
803.062256	-45.883778	163.454727	5.376663
803.458923	6.249354	81.726685	-21.925690
803.855652	-23.535265	121.366173	-46.757107
804.252258	-48.367363	138.700302	-36.823387
804.648804	-3.677091	86.683006	-79.053848
805.045410	-85.635391	29.659971	-54.208710
805.441833	-63.271660	39.580967	-49.240868
805.838257	6.249354	69.334038	2.895239
806.234619	-21.052593	148.603302	-79.053848
806.630859	-100.549232	101.549759	-71.599205
807.027100	21.136166	34.620743	-54.208710
807.423279	-21.052593	-2.594633	-16.960720
807.819458	-60.787434	118.889565	-66.629890
808.215515	6.249354	12.294271	-34.340149
808.611572	-8.641074	44.540775	-41.790035
809.007507	1.286340	12.294271	89.686836
809.403381	-63.271660	66.855148	-49.240868
809.799194	-1.195390	106.504440	-36.823387
810.195068	-1.195390	64.376160	89.686836
810.590759	-35.950069	81.726685	35.146851
810.986450	-115.466934	81.726685	32.666542
811.382080	-43.400158	66.855148	5.376663
811.777649	-18.570162	37.100838	-24.408400
812.173157	-28.500927	61.897060	20.263695
812.568665	-70.725372	101.549759	-64.145386
812.964050	-73.210014	71.812691	-34.340149
813.359375	-1.195390	89.161072	-54.208710
813.754639	-95.577576	113.935760	-14.478327
814.149841	-1.195390	74.291382	-41.790035
814.545105	-75.694908	51.979916	-24.408400
814.940186	-70.725372	108.981689	-21.925690
815.335266	-65.756126	146.127808	-44.273586
815.730347	21.136166	156.029465	-69.114494
816.125244	-55.819035	108.981689	7.858117
816.520203	-26.018044	138.700302	5.376663
816.914978	-38.433235	257.430481	-106.395836
817.309753	-30.983778	762.029968	-14.478327
817.704468	-1.195390	2031.047241	-39.306591
818.099182	-50.851192	3193.165039	-49.240868
818.493774	33.538830	4183.815918	-39.306591
818.888367	-35.950069	5130.460938	-31.857023
819.282898	-70.725372	5581.086914	-59.176838
819.677307	-53.335133	5469.174316	67.380974
820.071716	-95.577576	4720.355957	-59.176838
820.466003	36.019108	3673.073975	-69.114494
820.860291	-68.240692	2768.344238	-36.823387
821.254517	-3.677091	2204.514404	-2.068192
821.648743	1.286340	1712.094482	-71.599205
822.042786	-23.535265	1301.880981	-46.757107
822.436890	11.212086	962.812012	-81.538857
822.830872	-13.605341	708.062317	32.666542
823.224792	-8.641074	528.675903	-39.306591
823.618774	-58.303181	252.488022	-9.513986
824.012512	-11.123223	225.297058	-26.891212
824.406311	43.459179	240.129913	-96.451782
824.799988	-40.916641	148.603302	-93.966003
825.193665	-53.335133	183.251083	20.263695
825.587280	-43.400158	163.454727	-44.273586
825.980835	-21.052593	168.404495	-24.408400
826.374329	-60.787434	2.368707	-9.513986
826.767761	18.655268	86.683006	2.895239
827.161194	-80.664864	12.294271	2.895239
827.554443	-108.007599	47.020592	-34.340149
827.947754	-26.018044	113.935760	-59.176838
828.340942	-40.916641	64.376160	-69.114494
828.734131	-58.303181	89.161072	-21.925690
829.127136	-98.063286	96.594536	64.902000
829.520264	-18.570162	84.204964	-26.891212
829.913208	-45.883778	74.291382	-44.273586
830.306152	-43.400158	37.100838	-11.996171
830.699097	-11.123223	101.549759	-56.692650
831.091797	-45.883778	56.938694	-49.240868
831.484619	1.286340	74.291382	-66.629890
831.877319	-33.466869	89.161072	15.301722
832.270020	-33.466869	64.376160	-26.891212
832.662537	-30.983778	24.698919	-61.661121
833.055054	-115.466934	84.204964	50.026287
833.447510	-26.018044	81.726685	-34.340149
833.839966	-73.210014	22.218170	-46.757107
834.232361	-23.535265	34.620743	17.782761
834.624634	-98.063286	113.935760	-21.925690
835.016907	-40.916641	9.813137	-96.451782
835.409058	-35.950069	42.060989	17.782761
835.801208	-88.120804	71.812691	-41.790035
836.193298	-26.018044	74.291382	-39.306591
836.585327	-30.983778	39.580967	-46.757107
836.977295	-6.159030	14.775435	-24.408400
837.369202	-21.052593	101.549759	-66.629890
837.761047	-43.400158	89.161072	-7.031905
838.152832	-40.916641	34.620743	-24.408400
838.544617	-28.500927	69.334038	-26.891212
838.936218	63.294918	81.726685	-44.273586
839.327942	-145.314056	74.291382	-44.273586
839.719421	-33.466869	47.020592	-26.891212
840.111023	31.058451	74.291382	-41.790035
840.502380	-53.335133	4.850288	5.376663
840.893860	-6.159030	34.620743	-34.340149
841.285217	-90.606194	19.737318	-24.408400
841.676453	-33.466869	22.218170	-39.306591
842.067749	-85.635391	-12.522700	-2.068192
842.458862	-93.091835	-52.251621	52.505875
842.849976	50.898319	-17.487295	15.301722
843.241028	3.767967	12.294271	-44.273586
843.632019	-73.210014	44.540775	45.066933
844.022949	-35.950069	44.540775	17.782761
844.413879	-60.787434	94.116913	30.186123
844.804749	-38.433235	99.072197	-19.443220
845.195496	-70.725372	37.100838	-88.994911
845.586182	-6.159030	7.331765	-19.443220
845.976807	-83.150078	37.100838	-121.315033
846.367432	-73.210014	59.417999	-51.724735
846.757996	-68.240692	-0.112843	-2.068192
847.148499	38.499279	-2.594633	-19.443220
847.538879	36.019108	-32.383865	-54.208710
847.929260	-30.983778	79.248306	-36.823387
848.319641	-1.195390	-24.935040	-34.340149
848.709839	-98.063286	-34.866882	-71.599205
849.100098	6.249354	76.769966	25.225117
849.490234	-23.535265	-0.112843	-61.661121
849.880310	1.286340	-10.040493	25.225117
850.270325	-70.725372	-5.076527	-31.857023
850.660339	-38.433235	2.368707	-56.692650
851.050171	-35.950069	54.459293	-113.854950
851.440125	-26.018044	-62.188099	-79.053848
851.829895	-70.725372	56.938694	-31.857023
852.219604	-16.087700	24.698919	35.146851
852.609314	-6.159030	-12.522700	-51.724735
852.998901	-8.641074	-47.284084	-74.083893
853.388550	-6.159030	-15.005013	-71.599205
853.778015	-85.635391	69.334038	-29.374132
854.167480	8.730772	-34.866882	-2.068192
854.556885	-26.018044	-79.580978	-26.891212
854.946228	-75.694908	32.140408	-29.374132
855.335571	-73.210014	69.334038	-34.340149
855.724731	-35.950069	51.979916	10.339468
856.113953	-53.335133	12.294271	0.413576
856.503052	60.815777	34.620743	-19.443220
856.892151	-73.210014	71.812691	-51.724735
857.281067	-73.210014	-5.076527	-41.790035
857.670105	-50.851192	29.659971	-14.478327
858.058960	-70.725372	14.775435	-44.273586
858.447754	3.767967	34.620743	-34.340149
858.836609	-40.916641	-10.040493	-76.568817
859.225281	-55.819035	49.500305	-14.478327
859.613892	-8.641074	7.331765	-41.790035
860.002502	-45.883778	32.140408	-49.240868
860.391052	-6.159030	69.334038	-4.549929
860.779541	-45.883778	27.179428	-16.960720
861.167969	-150.290024	76.769966	-41.790035
861.556335	-103.035301	74.291382	-31.857023
861.944702	43.459179	61.897060	-19.443220
862.332947	3.767967	54.459293	-39.306591
862.721069	-13.605341	61.897060	-76.568817
863.109253	-63.271660	-54.735619	-91.480339
863.497314	-21.052593	-72.126274	-93.966003
863.885376	-85.635391	7.331765	-39.306591
864.273315	-18.570162	-37.350140	-123.801865
864.661255	-33.466869	-22.452444	-61.661121
865.049072	-50.851192	-2.594633	-76.568817
865.436890	-18.570162	2.368707	-16.960720
865.824707	-80.664864	54.459293	-56.692650
866.212280	3.767967	-54.735619	64.902000
866.599915	-63.271660	-19.969816	-96.451782
866.987488	33.538830	4.850288	-39.306591
867.375061	-18.570162	9.813137	0.413576
867.762451	-1.195390	113.935760	-16.960720
868.149841	-21.052593	19.737318	-41.790035
868.537170	3.767967	56.938694	-51.724735
868.924438	-6.159030	-19.969816	5.376663
869.311707	11.212086	-24.935040	-4.549929
869.698853	-95.577576	54.459293	20.263695
870.085938	-103.035301	51.979916	54.985359
870.472961	-50.851192	-0.112843	25.225117
870.859985	-13.605341	111.458847	-16.960720
871.246887	8.730772	-34.866882	-46.757107
871.633789	28.578102	47.020592	-39.306591
872.020569	-43.400158	9.813137	-51.724735
872.407349	-28.500927	-27.417875	-14.478327
872.794067	-3.677091	-12.522700	-41.790035
873.180725	-90.606194	39.580967	-36.823387
873.567322	-68.240692	-2.594633	-91.480339
873.953796	-58.303181	-12.522700	-44.273586
874.340332	-55.819035	-10.040493	-61.661121
874.726624	-3.677091	89.161072	-64.145386
875.113037	-33.466869	37.100838	-2.068192
875.499329	-35.950069	49.500305	30.186123
875.885559	-93.091835	4.850288	-56.692650
876.271729	-35.950069	86.683006	27.705740
876.657898	-11.123223	7.331765	-59.176838
877.044006	18.655268	61.897060	-71.599205
877.429932	-80.664864	9.813137	-21.925690
877.815918	-26.018044	-2.594633	27.705740
878.201782	-40.916641	14.775435	47.546593
878.587585	-45.883778	56.938694	-11.996171
878.973389	-78.179901	9.813137	-31.857023
879.359070	-40.916641	22.218170	-31.857023
879.744751	-80.664864	-39.833500	0.413576
880.130310	-16.087700	-49.767868	7.858117
880.515930	-1.195390	9.813137	2.895239
880.901367	13.693295	22.218170	-26.891212
881.286804	13.693295	49.500305	47.546593
881.672180	13.693295	-54.735619	-11.996171
882.057434	-18.570162	-2.594633	-54.208710
882.442749	-80.664864	37.100838	-29.374132
882.827942	11.212086	44.540775	-16.960720
883.213013	-83.150078	-15.005013	-7.031905
883.598145	-48.367363	-10.040493	27.705740
883.983154	-30.983778	-64.672516	-16.960720
884.368042	-33.466869	76.769966	-49.240868
884.753052	-16.087700	-104.436981	-44.273586
885.137817	-28.500927	7.331765	-61.661121
885.522644	33.538830	-7.558390	-51.724735
885.907349	26.097515	2.368707	-54.208710
886.292053	-16.087700	-49.767868	-31.857023
886.676636	-125.414253	-12.522700	-59.176838
887.061157	-85.635391	42.060989	-4.549929
887.445740	-3.677091	-59.703789	-56.692650
887.830078	-16.087700	4.850288	32.666542
888.214539	-6.159030	27.179428	-16.960720
888.598816	-35.950069	-47.284084	-14.478327
888.983093	-55.819035	64.376160	-4.549929
889.367249	-28.500927	34.620743	-29.374132
889.751465	-68.240692	71.812691	47.546593
890.135498	-43.400158	74.291382	-11.996171
890.519531	-11.123223	24.698919	7.858117
890.903503	-40.916641	71.812691	2.895239
891.287415	-120.440453	-2.594633	-44.273586
891.671326	-98.063286	-15.005013	-29.374132
892.055054	-21.052593	51.979916	-36.823387
892.438843	-48.367363	42.060989	-64.145386
892.822510	-85.635391	-22.452444	-71.599205
893.206116	-16.087700	49.500305	-74.083893
893.589661	-16.087700	-17.487295	-96.451782
893.973206	-103.035301	-7.558390	-21.925690
894.356628	-45.883778	-27.417875	-46.757107
894.739990	1.286340	4.850288	-39.306591
895.123352	-40.916641	-116.869057	-41.790035
895.506592	-3.677091	29.659971	-34.340149
895.889832	26.097515	42.060989	-39.306591
896.272949	-26.018044	42.060989	-44.273586
896.656067	23.616825	17.256495	-4.549929
897.039063	-11.123223	-47.284084	-86.509453
897.422058	-26.018044	-2.594633	-51.724735
897.804993	-11.123223	-0.112843	12.820714
898.187866	-11.123223	-24.935040	87.208786
898.570618	43.459179	42.060989	-54.208710
898.953369	1.286340	-54.735619	-4.549929
899.336121	-103.035301	-22.452444	0.413576
899.718689	-105.521469	-29.900818	20.263695
900.101257	-70.725372	-12.522700	42.587036
900.483704	-18.570162	9.813137	10.339468
900.866211	-16.087700	-62.188099	-66.629890
901.248596	-6.159030	-44.800404	-79.053848
901.630920	-33.466869	-44.800404	-34.340149
902.013184	-3.677091	-101.950867	-88.994911
902.395386	-18.570162	12.294271	-64.145386
902.777588	-13.605341	-84.551277	-16.960720
903.159668	-40.916641	34.620743	7.858117
903.541687	-21.052593	39.580967	30.186123
903.923645	-33.466869	-0.112843	-54.208710
904.305603	-18.570162	32.140408	77.295700
904.687500	-43.400158	32.140408	-54.208710
905.069275	13.693295	-44.800404	-36.823387
905.451050	-30.983778	-2.594633	-31.857023
905.832642	-100.549232	-39.833500	-96.451782
906.214294	33.538830	-37.350140	-21.925690
906.595825	-26.018044	61.897060	-34.340149
906.977417	-90.606194	-19.969816	10.339468
907.358826	6.249354	24.698919	-71.599205
907.740234	-13.605341	-19.969816	-121.315033
908.121582	16.174267	17.256495	-136.238113
908.502869	-11.123223	-27.417875	-64.145386
908.884033	1.286340	-54.735619	2.895239
909.265198	-13.605341	4.850288	5.376663
909.646301	-16.087700	22.218170	-44.273586
910.027344	18.655268	-49.767868	-34.340149
910.408325	-40.916641	22.218170	-56.692650
910.789246	-63.271660	-49.767868	-4.549929
911.170105	-98.063286	24.698919	42.587036
911.550903	-58.303181	39.580967	-4.549929
911.931641	-11.123223	17.256495	-44.273586
912.312317	-33.466869	-32.383865	-71.599205
912.692932	-26.018044	-29.900818	-26.891212
913.073547	-35.950069	14.775435	-61.661121
913.453979	31.058451	-24.935040	-9.513986
913.834473	-80.664864	-42.316833	-21.925690
914.214783	-75.694908	19.737318	-2.068192
914.595154	-26.018044	19.737318	-59.176838
914.975464	-117.953644	44.540775	-44.273586
915.355652	-137.850861	-12.522700	27.705740
915.735840	-60.787434	-37.350140	-7.031905
916.115845	-55.819035	-17.487295	-24.408400
916.495972	-50.851192	2.368707	2.895239
916.875854	-78.179901	-0.112843	-131.263367
917.255859	-28.500927	-7.558390	2.895239
917.635620	-40.916641	-129.303680	-31.857023
918.015503	3.767967	-24.935040	22.744390
918.395203	-55.819035	-22.452444	-71.599205
918.774902	-50.851192	22.218170	-66.629890
919.154480	-30.983778	2.368707	-2.068192
919.534058	-63.271660	32.140408	-29.374132
919.913574	-16.087700	81.726685	-61.661121
920.292969	-18.570162	29.659971	-86.509453
920.672363	-16.087700	7.331765	-24.408400
921.051636	-68.240692	39.580967	-4.549929
921.430969	-50.851192	-27.417875	-56.692650
921.810181	-45.883778	-49.767868	-44.273586
922.189331	-58.303181	-24.935040	-46.757107
922.568420	18.655268	-5.076527	-113.854950
922.947388	-85.635391	24.698919	-86.509453
923.326416	-30.983778	42.060989	-69.114494
923.705261	16.174267	7.331765	-4.549929
924.084106	-13.605341	-10.040493	-61.661121
924.462891	-58.303181	44.540775	-118.828194
924.841675	-40.916641	-27.417875	-59.176838
925.220337	3.767967	49.500305	-51.724735
925.598938	-60.787434	-19.969816	-66.629890
925.977478	-83.150078	49.500305	-59.176838
926.355957	-33.466869	47.020592	-51.724735
926.734436	-55.819035	-17.487295	-9.513986
927.112732	-8.641074	-52.251621	-26.891212
927.491089	-68.240692	-15.005013	25.225117
927.869324	-21.052593	-17.487295	-2.068192
928.247559	-21.052593	22.218170	-64.145386
928.625671	23.616825	81.726685	-31.857023
929.003723	3.767967	-52.251621	42.587036
929.381775	1.286340	-39.833500	-19.443220
929.759705	-63.271660	-19.969816	-86.509453
930.137634	-38.433235	-54.735619	-71.599205
930.515381	-70.725372	-37.350140	-24.408400
930.893250	-55.819035	-67.156906	-54.208710
931.270935	-48.367363	-27.417875	-16.960720
931.648560	-3.677091	-2.594633	-7.031905
932.026123	-35.950069	-19.969816	-51.724735
932.403687	11.212086	-22.452444	-86.509453
932.781250	3.767967	-52.251621	-14.478327
933.158630	-26.018044	-39.833500	37.627060
933.536011	-60.787434	14.775435	-21.925690
933.913208	-50.851192	2.368707	-41.790035
934.290527	-73.210014	76.769966	-56.692650
934.667664	8.730772	29.659971	-71.599205
935.044800	50.898319	86.683006	-7.031905
935.421814	40.979210	42.060989	-26.891212
935.798889	-68.240692	32.140408	-39.306591
936.175842	6.249354	54.459293	-146.189026
936.552673	-30.983778	-94.493279	-41.790035
936.929504	-30.983778	-64.672516	-61.661121
937.306274	-137.850861	-89.522133	-51.724735
937.683044	28.578102	-39.833500	-93.966003
938.059570	-85.635391	-24.935040	-54.208710
938.436218	6.249354	-27.417875	-98.937538
938.812744	-43.400158	27.179428	-24.408400
939.189148	-70.725372	-22.452444	-41.790035
939.565613	-13.605341	14.775435	-31.857023
939.941956	-8.641074	-47.284084	-56.692650
940.318237	-63.271660	12.294271	-66.629890
940.694458	-3.677091	-7.558390	22.744390
941.070557	11.212086	-37.350140	-69.114494
941.446655	-30.983778	22.218170	-69.114494
941.822693	-23.535265	-32.383865	-31.857023
942.198669	-3.677091	19.737318	-7.031905
942.574646	-1.195390	-74.611115	-34.340149
942.950562	-33.466869	-22.452444	-21.925690
943.326294	-30.983778	-89.522133	-59.176838
943.702026	28.578102	-64.672516	27.705740
944.077698	-33.466869	-129.303680	-16.960720
944.453369	-53.335133	14.775435	-39.306591
944.828918	-45.883778	-39.833500	-36.823387
945.204468	-33.466869	-79.580978	-71.599205
945.579834	-68.240692	-2.594633	-7.031905
945.955261	-33.466869	-2.594633	-39.306591
946.330627	-78.179901	24.698919	-16.960720
946.705811	16.174267	-37.350140	-61.661121
947.081055	21.136166	-72.126274	-34.340149
947.456177	-38.433235	-2.594633	-4.549929
947.831238	-55.819035	-44.800404	-11.996171
948.206238	-53.335133	-89.522133	10.339468
948.581238	-45.883778	-57.219715	-9.513986
948.956116	3.767967	14.775435	-36.823387
949.330933	-78.179901	-37.350140	-7.031905
949.705811	-30.983778	17.256495	-86.509453
950.080505	-73.210014	47.020592	-69.114494
950.455139	-55.819035	-69.641533	-31.857023
950.829773	-85.635391	7.331765	-61.661121
951.204346	-16.087700	89.161072	10.339468
951.578735	-73.210014	-0.112843	-16.960720
951.953186	-83.150078	-59.703789	-66.629890
952.327515	3.767967	-44.800404	-49.240868
952.701843	-48.367363	2.368707	-84.024094
953.076172	-33.466869	-22.452444	17.782761
953.450195	90.558159	37.100838	-103.909622
953.824341	-38.433235	-0.112843	-56.692650
954.198486	-50.851192	-37.350140	-19.443220
954.572449	-35.950069	4.850288	-9.513986
954.946350	21.136166	-96.979080	-108.882004
955.320251	-11.123223	12.294271	-56.692650
955.694092	-50.851192	-129.303680	-16.960720
956.067871	-11.123223	-79.580978	-26.891212
956.441589	-11.123223	-69.641533	27.705740
956.815125	11.212086	-62.188099	-7.031905
957.188721	-80.664864	-12.522700	-34.340149
957.562256	1.286340	-52.251621	-76.568817
957.935730	-8.641074	-32.383865	-44.273586
958.309021	3.767967	-52.251621	7.858117
958.682373	-35.950069	-82.066147	-41.790035
959.055664	-23.535265	-69.641533	-66.629890
959.428955	-65.756126	-77.095932	37.627060
959.802063	-65.756126	-22.452444	-59.176838
960.175110	8.730772	-79.580978	-44.273586
960.548157	-55.819035	-34.866882	-138.725708
960.921143	-105.521469	-10.040493	-9.513986
961.294128	26.097515	-12.522700	-16.960720
961.666809	-145.314056	-34.866882	-29.374132
962.039612	-11.123223	-7.558390	-29.374132
962.412415	-105.521469	-82.066147	2.895239
962.785095	-63.271660	-64.672516	-61.661121
963.157715	-105.521469	66.855148	-71.599205
963.530151	-73.210014	-15.005013	-41.790035
963.902649	-95.577576	12.294271	-19.443220
964.275146	-50.851192	-24.935040	-11.996171
964.647522	-63.271660	-72.126274	-126.288918
965.019714	-40.916641	-44.800404	-26.891212
965.392029	-55.819035	-39.833500	-26.891212
965.764160	-60.787434	-104.436981	-39.306591
966.136292	-53.335133	-77.095932	-61.661121
966.508423	-100.549232	-89.522133	-34.340149
966.880371	-53.335133	-59.703789	20.263695
967.252319	-21.052593	-29.900818	-98.937538
967.624207	-33.466869	-7.558390	-41.790035
967.996094	-3.677091	-77.095932	-39.306591
968.367737	-48.367363	-29.900818	-7.031905
968.739441	1.286340	-44.800404	-11.996171
969.111084	33.538830	-15.005013	-74.083893
969.482666	8.730772	12.294271	-64.145386
969.854248	-70.725372	-0.112843	-93.966003
970.225586	-80.664864	-15.005013	-79.053848
970.596985	53.377872	-72.126274	15.301722
970.968323	-30.983778	-49.767868	-36.823387
971.339661	-23.535265	-64.672516	69.859848
971.710754	-83.150078	-82.066147	-2.068192
972.081909	-88.120804	-39.833500	52.505875
972.453064	-18.570162	-15.005013	-59.176838
972.824097	-28.500927	37.100838	-69.114494
973.194946	-103.035301	-59.703789	-39.306591
973.565918	-23.535265	56.938694	7.858117
973.936768	55.857323	-7.558390	32.666542
974.307556	-23.535265	24.698919	-41.790035
974.678284	-105.521469	19.737318	-14.478327
975.048828	-75.694908	-67.156906	-49.240868
975.419495	-28.500927	-59.703789	-26.891212
975.790039	16.174267	-47.284084	-93.966003
976.160522	-55.819035	-104.436981	2.895239
976.530884	-38.433235	29.659971	-84.024094
976.901245	-98.063286	-12.522700	-84.024094
977.271606	-127.901390	-15.005013	-2.068192
977.641846	-60.787434	24.698919	-11.996171
978.012024	-30.983778	-24.935040	-24.408400
978.382019	-16.087700	-42.316833	-26.891212
978.752136	-55.819035	-12.522700	7.858117
979.122131	-40.916641	-44.800404	47.546593
979.492065	11.212086	-24.935040	7.858117
979.861877	-26.018044	-22.452444	10.339468
980.231689	-38.433235	-37.350140	-29.374132
980.601440	-100.549232	9.813137	-19.443220
980.971191	-38.433235	2.368707	-9.513986
981.340820	3.767967	-64.672516	-36.823387
981.710266	-38.433235	32.140408	7.858117
982.079773	-50.851192	-94.493279	-64.145386
982.449280	28.578102	-54.735619	-76.568817
982.818604	-55.819035	-39.833500	-21.925690
983.187866	-13.605341	9.813137	-108.882004
983.557129	-40.916641	-34.866882	-54.208710
983.926331	-21.052593	-62.188099	-81.538857
984.295471	-35.950069	-39.833500	-44.273586
984.664612	-16.087700	-67.156906	-76.568817
985.033569	-80.664864	-10.040493	-16.960720
985.402527	6.249354	-84.551277	-29.374132
985.771362	-18.570162	-19.969816	-54.208710
986.140259	-18.570162	-10.040493	-46.757107
986.508911	-38.433235	-22.452444	-11.996171
986.877625	-16.087700	12.294271	20.263695
987.246277	1.286340	-49.767868	-49.240868
987.614929	-53.335133	-15.005013	-9.513986
987.983459	-53.335133	-54.735619	15.301722
988.351807	28.578102	-10.040493	-21.925690
988.720215	-63.271660	-37.350140	-29.374132
989.088623	1.286340	-131.790985	-19.443220
989.456909	6.249354	-74.611115	-16.960720
989.825012	-26.018044	-59.703789	-66.629890
990.193115	-43.400158	-34.866882	37.627060
990.561279	-60.787434	-17.487295	-41.790035
990.929321	-16.087700	-37.350140	5.376663
991.297302	-95.577576	-49.767868	-71.599205
991.665100	8.730772	-79.580978	-64.145386
992.033020	16.174267	17.256495	2.895239
992.400818	-53.335133	42.060989	27.705740
992.768494	26.097515	-17.487295	-56.692650
993.136047	8.730772	-57.219715	-21.925690
993.503723	-13.605341	-10.040493	-44.273586
993.871277	-70.725372	-54.735619	-64.145386
994.238770	-103.035301	-69.641533	45.066933
994.606140	-70.725372	-64.672516	-64.145386
994.973450	-30.983778	-57.219715	-44.273586
995.340759	-50.851192	-47.284084	-79.053848
995.708008	-45.883778	-106.923210	-54.208710
996.075195	3.767967	-52.251621	-81.538857
996.442200	-55.819035	7.331765	-118.828194
996.809265	-38.433235	-10.040493	-29.374132
997.176270	26.097515	34.620743	0.413576
997.543152	-30.983778	14.775435	-71.599205
997.910095	-43.400158	-24.935040	-26.891212
998.276733	-83.150078	29.659971	-2.068192
998.643494	8.730772	-19.969816	-54.208710
999.010193	-26.018044	-69.641533	-36.823387
999.376831	-80.664864	-111.895851	-19.443220
999.743286	-40.916641	4.850288	-64.145386
1000.109802	-60.787434	-5.076527	45.066933
1000.476257	8.730772	-124.329529	-16.960720
1000.842651	-28.500927	9.813137	-59.176838
1001.208923	65.773827	-17.487295	-59.176838
1001.575134	-30.983778	-52.251621	-31.857023
1001.941284	-105.521469	-52.251621	40.107033
1002.307434	-93.091835	-74.611115	-9.513986
1002.673523	78.167336	-96.979080	-7.031905
1003.039429	-26.018044	-84.551277	0.413576
1003.405334	-40.916641	-104.436981	-59.176838
1003.771179	-70.725372	-24.935040	-16.960720
1004.137024	-115.466934	-32.383865	-61.661121
1004.502808	-45.883778	17.256495	5.376663
1004.868408	-93.091835	-27.417875	-84.024094
1005.234009	-73.210014	-44.800404	-7.031905
1005.599609	-115.466934	-34.866882	-11.996171
1005.965149	-55.819035	-10.040493	-64.145386
1006.330444	-70.725372	-54.735619	2.895239
1006.695862	-3.677091	-47.284084	42.587036
1007.061218	-28.500927	2.368707	-49.240868
1007.426453	-3.677091	-47.284084	-61.661121
1007.791626	43.459179	-7.558390	-101.423523
1008.156677	-43.400158	-32.383865	-4.549929
1008.521729	-78.179901	-49.767868	-14.478327
1008.886780	-40.916641	-29.900818	-61.661121
1009.251709	-58.303181	4.850288	-36.823387
1009.616577	-105.521469	-27.417875	-51.724735
1009.981384	-127.901390	-79.580978	-14.478327
1010.346130	-35.950069	-104.436981	-56.692650
1010.710754	-40.916641	-29.900818	-51.724735
1011.075439	21.136166	-37.350140	-64.145386
1011.439941	-65.756126	-47.284084	2.895239
1011.804443	-50.851192	-7.558390	0.413576
1012.168884	11.212086	-47.284084	10.339468
1012.533325	45.939041	-42.316833	50.026287
1012.897522	-18.570162	-82.066147	-44.273586
1013.261780	-13.605341	-17.487295	-14.478327
1013.626038	-43.400158	-10.040493	-16.960720
1013.990112	28.578102	-22.452444	-4.549929
1014.354187	16.174267	-19.969816	-14.478327
1014.718140	-63.271660	-0.112843	-2.068192
1015.082153	-11.123223	17.256495	-79.053848
1015.446045	-11.123223	-39.833500	-59.176838
1015.809937	-13.605341	-5.076527	-36.823387
1016.173523	-63.271660	-24.935040	-9.513986
1016.537170	-33.466869	-39.833500	-21.925690
1016.900879	3.767967	-72.126274	12.820714
1017.264404	-3.677091	-39.833500	-24.408400
1017.627991	-75.694908	-104.436981	-11.996171
1017.991333	-78.179901	-57.219715	-69.114494
1018.354675	-88.120804	-69.641533	-36.823387
1018.718018	-58.303181	-19.969816	-59.176838
1019.081299	-53.335133	-49.767868	-41.790035
1019.444397	-88.120804	-52.251621	-49.240868
1019.807495	-73.210014	-79.580978	-31.857023
1020.170593	-3.677091	2.368707	-44.273586
1020.533691	-53.335133	-0.112843	-49.240868
1020.896606	-38.433235	-12.522700	-41.790035
1021.259460	-95.577576	-17.487295	-66.629890
1021.622253	-43.400158	-54.735619	-86.509453
1021.985046	-83.150078	-94.493279	-54.208710
1022.347778	-75.694908	-32.383865	-79.053848
1022.710327	53.377872	-52.251621	-126.288918
1023.072876	26.097515	-79.580978	-88.994911
1023.435364	-33.466869	-62.188099	-133.750626
1023.797852	-53.335133	-57.219715	-31.857023
1024.160278	-80.664864	-47.284084	-34.340149
1024.522461	-85.635391	-74.611115	7.858117
1024.884766	-63.271660	-141.741119	20.263695
1025.246948	-26.018044	-37.350140	-9.513986
1025.609131	-80.664864	-69.641533	40.107033
1025.971069	-33.466869	-99.464981	0.413576
1026.333130	-18.570162	-54.735619	25.225117
1026.694946	-1.195390	-64.672516	-21.925690
1027.056885	-50.851192	-34.866882	10.339468
1027.418823	-11.123223	74.291382	32.666542
1027.780396	8.730772	-69.641533	12.820714
1028.142090	-3.677091	-12.522700	-86.509453
1028.503784	-135.363297	-44.800404	17.782761
1028.865479	-110.493988	-74.611115	-21.925690
1029.226807	-8.641074	-42.316833	-81.538857
1029.588135	-48.367363	-34.866882	12.820714
1029.949707	-40.916641	-17.487295	-24.408400
1030.310913	-8.641074	-17.487295	20.263695
1030.672241	-21.052593	-15.005013	-16.960720
1031.033325	-90.606194	-0.112843	2.895239
1031.394531	-68.240692	-39.833500	-39.306591
1031.755493	-58.303181	-37.350140	12.820714
1032.116577	-45.883778	56.938694	-29.374132
1032.477417	-135.363297	-89.522133	2.895239
1032.838257	1.286340	-32.383865	35.146851
1033.199097	11.212086	-0.112843	-96.451782
1033.559937	53.377872	-52.251621	-116.341446
1033.920654	-28.500927	-74.611115	-51.724735
1034.281128	-63.271660	-19.969816	-41.790035
1034.641724	-11.123223	-17.487295	15.301722
1035.002197	-30.983778	-99.464981	-76.568817
1035.362671	43.459179	-52.251621	-59.176838
1035.722900	3.767967	91.639038	-14.478327
1036.083252	-33.466869	69.334038	-131.263367
1036.443481	-95.577576	-59.703789	-76.568817
1036.803711	-65.756126	-77.095932	20.263695
1037.163940	90.558159	-39.833500	-133.750626
1037.523804	11.212086	-5.076527	2.895239
1037.883789	-93.091835	-27.417875	-113.854950
1038.243774	-26.018044	17.256495	-19.443220
1038.603638	-68.240692	-57.219715	-29.374132
1038.963257	-35.950069	-10.040493	7.858117
1039.323120	-13.605341	-22.452444	20.263695
1039.682861	36.019108	2.368707	10.339468
>>>>>End Processed Spectral Data<<<<<
