Jaz Data File
++++++++++++++++++++++++++++++++++++
Date: Thu Dec 04 18:19:59 2014
User: jaz
Dark Spectrum Present: Yes
Reference Spectrum Present: Yes
Processed Spectrum Present: No
Spectrometers: JAZA2310
Integration Time (usec): 504000 (JAZA2310)
Spectra Averaged: 1 (JAZA2310)
Boxcar Smoothing: 0 (JAZA2310)
Correct for Electrical Dark: Yes (JAZA2310)
Strobe/Lamp Enabled: No (JAZA2310)
Correct for Detector Non-linearity: Yes (JAZA2310)
Correct for Stray Light: No (JAZA2310)
Number of Pixels in Processed Spectrum: 2048
>>>>>Begin Processed Spectral Data<<<<<
W	D	R	S
188.301102	0.000000	0.000000	0.000000
188.764923	0.000000	0.000000	0.000000
189.228699	-49.654930	-216.309174	-98.696594
189.692459	-91.894699	-183.935379	-101.182579
190.156158	-94.380249	-221.291351	-96.210716
190.619812	-54.622669	-216.309174	-61.420204
191.083435	62.009785	200.679962	70.100098
191.547043	9.925827	-59.590965	-36.582565
192.010590	9.925827	-14.892141	8.098619
192.474091	-29.787918	94.229431	52.746193
192.937561	37.213612	-52.138813	-34.099476
193.401001	81.839378	143.764511	32.906940
193.864410	2.481545	131.384476	57.705044
194.327759	74.404083	158.617111	127.084694
194.791077	-34.753971	9.925827	8.098619
195.254349	-14.892141	2.481545	-41.549332
195.717575	49.613056	101.662277	-39.065895
196.180786	14.888249	-64.559685	-68.873680
196.643951	52.092663	116.525200	84.970825
197.107071	24.811714	-7.445668	22.984966
197.570145	32.253189	94.229431	25.465548
198.033203	-4.963674	4.962986	25.465548
198.496216	-9.927631	42.173615	25.465548
198.959167	-67.043938	-67.044075	30.426670
199.422089	-72.013290	44.653534	0.654107
199.884979	37.213612	34.733383	0.654107
200.347855	42.173752	44.653534	30.426670
200.810654	42.173752	74.403946	-29.133345
201.273422	29.772757	17.369171	92.404945
201.736160	66.967865	395.775208	-16.720118
202.198853	64.488876	146.240250	35.387245
202.661514	79.361000	106.616943	30.426670
203.124130	-29.787918	-72.013428	-21.685068
203.586700	86.795677	247.657410	32.906940
204.049240	126.431976	86.795677	18.023220
204.511734	-64.559555	79.361000	-16.720118
204.974197	7.444594	76.882530	-49.000134
205.436615	-47.171146	-47.171284	-26.650570
205.899002	-24.822149	121.478790	-49.000134
206.361343	-17.374418	-12.409968	-4.309377
206.823654	-59.590828	-14.892141	-83.783218
207.285919	-7.445533	101.662277	3.135760
207.748123	-49.654930	44.653534	-31.616358
208.210327	64.488876	22.330835	-76.327972
208.672485	59.530727	27.292219	-66.389084
209.134583	64.488876	151.191269	-39.065895
209.596649	-99.351952	14.888115	-93.725090
210.058670	12.407091	-2.481920	22.984966
210.520676	-101.837822	-121.729614	-36.582565
210.982635	17.369307	-4.963809	-44.032738
211.444534	7.444594	27.292219	-44.032738
211.906403	17.369307	208.099792	-39.065895
212.368240	2.481545	166.042053	112.224365
212.830048	-119.242615	-7.445668	-81.297981
213.291779	7.444594	185.837585	18.023220
213.753494	-64.559555	-86.923775	-88.753876
214.215179	-54.622669	-22.339691	-6.791343
214.676819	-64.559555	-89.409248	-73.843056
215.138412	-86.923637	-9.927766	-16.720118
215.599960	0.000000	74.403946	-16.720118
216.061493	57.051430	-34.754105	-31.616358
216.522949	29.772757	49.612923	25.465548
216.984406	42.173752	17.369171	13.061195
217.445801	-19.856936	-7.445668	-4.309377
217.907166	32.253189	52.092525	20.504145
218.368484	-2.481785	126.431839	8.098619
218.829773	-9.927631	74.403946	10.579959
219.291031	0.000000	42.173615	-4.309377
219.752228	57.051430	69.446617	-93.725090
220.213379	106.617081	101.662277	3.135760
220.674500	-12.409834	-129.190720	-93.725090
221.135574	9.925827	27.292219	-39.065895
221.596634	44.653534	111.571342	-31.616358
222.057648	-49.654930	42.173615	-46.516384
222.518600	-74.498131	-69.528694	-68.873680
222.979553	-79.467987	-136.652802	-56.451885
223.440430	7.444594	123.955292	5.617309
223.901276	12.407091	76.882530	35.387245
224.362076	7.444594	-86.923775	35.387245
224.822845	-91.894699	-79.468124	-46.516384
225.283569	2.481545	27.292219	0.654107
225.744278	-96.866043	-72.013428	-24.167767
226.204910	7.444594	153.666687	-11.755454
226.665512	-44.687473	-106.810295	-24.167767
227.126114	-29.787918	-7.445668	-4.309377
227.586639	54.572029	114.048256	-9.273415
228.047119	0.000000	7.444459	82.492722
228.507568	-74.498131	138.812881	-61.420204
228.967972	-17.374418	-14.892141	-34.099476
229.428345	-111.782791	-49.654930	30.426670
229.888687	0.000000	71.925262	-46.516384
230.348984	-4.963674	27.292219	-9.273415
230.809219	-59.590828	27.292219	30.426670
231.269440	-34.753971	-24.822283	-58.936058
231.729614	-81.953140	-79.468124	-9.273415
232.189758	-94.380249	7.444459	50.266617
232.649841	-14.892141	69.446617	-39.065895
233.109894	-12.409834	62.009785	-34.099476
233.569901	62.009785	210.572937	25.465548
234.029892	47.133343	158.617111	27.946159
234.489822	9.925827	180.889374	-11.755454
234.949707	-39.720581	-44.687611	0.654107
235.409561	-2.481785	185.837585	-1.827515
235.869385	17.369307	111.571342	3.135760
236.329163	-14.892141	22.330835	25.465548
236.788895	-57.106766	-47.171284	15.542327
237.248581	57.051430	44.653534	-68.873680
237.708237	39.693733	22.330835	25.465548
238.167847	-4.963674	-2.481920	-24.167767
238.627441	29.772757	44.653534	-49.000134
239.086960	-29.787918	49.612923	-11.755454
239.546463	86.795677	81.839241	52.746193
240.005920	62.009785	71.925262	30.426670
240.465332	-89.409119	-116.755981	-63.904591
240.924698	-32.270958	89.273613	-14.237735
241.384033	39.693733	-86.923775	-41.549332
241.843338	59.530727	-22.339691	-44.032738
242.302597	-32.270958	27.292219	-56.451885
242.761810	71.925400	215.518890	70.100098
243.220993	39.693733	27.292219	-29.133345
243.680115	-47.171146	205.626709	-63.904591
244.139221	2.481545	-19.857071	-51.483990
244.598282	-17.374418	22.330835	-39.065895
245.057297	-67.043938	-57.106766	-39.065895
245.516266	-81.953140	-37.237358	-44.032738
245.975189	-84.438271	-27.305115	0.654107
246.434082	-89.409119	-67.044075	-78.812859
246.892944	-119.242615	-32.270958	-6.791343
247.351761	-136.652664	-22.339691	20.504145
247.810516	86.795677	299.538422	-1.827515
248.269272	9.925827	54.571896	15.542327
248.727951	34.733521	284.719574	5.617309
249.186600	-14.892141	-34.754105	0.654107
249.645218	-39.720581	-81.953278	-53.967815
250.103790	-12.409834	111.571342	20.504145
250.562317	-44.687473	-81.953278	27.946159
251.020813	-96.866043	-94.380386	-63.904591
251.479279	-7.445533	-64.559685	-36.582565
251.937668	-49.654930	22.330835	-31.616358
252.396057	96.707191	158.617111	15.542327
252.854385	9.925827	-47.171284	-58.936058
253.312683	17.369307	66.967735	-6.791343
253.770920	-79.467987	14.888115	-41.549332
254.229126	-34.753971	-29.788054	15.542327
254.687302	-54.622669	-24.822283	-19.202473
255.145432	14.888249	-27.305115	-26.650570
255.603500	-76.982933	-37.237358	47.787067
256.061584	27.292219	-4.963809	-29.133345
256.519592	-72.013290	76.882530	18.023220
256.977570	-37.237225	-84.438408	-16.720118
257.435455	-64.559555	-67.044075	-41.549332
257.893372	-44.687473	-32.270958	-41.549332
258.351196	44.653534	9.925827	30.426670
258.808990	22.330971	47.133209	-29.133345
259.266754	-42.203907	-57.106766	-29.133345
259.724487	81.839378	314.353607	35.387245
260.182190	9.925827	34.733383	42.827393
260.639832	-17.374418	-44.687611	18.023220
261.097443	-111.782791	-64.559685	-126.047867
261.554993	49.613056	101.662277	-66.389084
262.012512	19.850122	91.751572	-76.327972
262.469971	69.446754	84.317505	25.465548
262.927429	14.888249	27.292219	25.465548
263.384827	27.292219	44.653534	22.984966
263.842194	22.330971	-0.000135	-58.936058
264.299530	-2.481785	-67.044075	-61.420204
264.756805	-79.467987	-39.720581	-16.720118
265.214050	4.963121	62.009785	-73.843056
265.671234	32.253189	264.955872	-26.650570
266.128387	-2.481785	-4.963809	-21.685068
266.585510	-24.822149	-59.590965	-63.904591
267.042572	-9.927631	24.811581	-21.685068
267.499573	-12.409834	42.173615	-53.967815
267.956604	62.009785	158.617111	-39.065895
268.413574	119.002182	309.415527	52.746193
268.870483	24.811714	99.184723	77.535919
269.327362	-39.720581	-14.892141	-14.237735
269.784180	143.764648	180.889374	35.387245
270.240936	163.567261	161.092239	-34.099476
270.697693	-86.923637	-9.927766	-61.420204
271.154419	-14.892141	-19.857071	-29.133345
271.611053	-121.729477	-94.380386	-34.099476
272.067688	64.488876	193.259216	82.492722
272.524292	-12.409834	44.653534	-111.127434
272.980835	47.133343	9.925827	-4.309377
273.437347	27.292219	76.882530	18.023220
273.893799	-17.374418	-32.270958	-16.720118
274.350250	-37.237225	-37.237358	-11.755454
274.806610	-44.687473	-24.822283	3.135760
275.262939	94.229568	198.206573	-44.032738
275.719238	0.000000	94.229431	-11.755454
276.175507	-59.590828	14.888115	67.621239
276.631714	-2.481785	126.431839	-11.755454
277.087891	-4.963674	37.213474	25.465548
277.544067	-57.106766	-27.305115	-34.099476
278.000122	-62.075138	-27.305115	-81.297981
278.456177	94.229568	104.139732	13.061195
278.912201	44.653534	116.525200	5.617309
279.368164	-67.043938	-57.106766	30.426670
279.824097	-67.043938	-139.140411	-11.755454
280.279968	-22.339558	12.406956	-6.791343
280.735840	-94.380249	-22.339691	-41.549332
281.191620	-17.374418	9.925827	-44.032738
281.647400	14.888249	-72.013428	15.542327
282.103149	2.481545	74.403946	75.057503
282.558838	17.369307	54.571896	-4.309377
283.014465	9.925827	79.361000	0.654107
283.470062	-34.753971	22.330835	35.387245
283.925629	-2.481785	44.653534	62.663345
284.381134	-52.138680	-17.374554	20.504145
284.836639	-79.467987	-9.927766	-46.516384
285.292053	-57.106766	86.795677	-16.720118
285.747467	-76.982933	-52.138813	-46.516384
286.202820	-52.138680	-24.822283	-73.843056
286.658142	74.404083	71.925262	-24.167767
287.113434	-12.409834	-9.927766	-71.358246
287.568634	37.213612	19.850122	-68.873680
288.023804	62.009785	282.249542	32.906940
288.478973	-79.467987	-54.622803	-34.099476
288.934113	-37.237225	-19.857071	-78.812859
289.389130	-81.953140	-2.481920	-76.327972
289.844208	42.173752	-24.822283	-11.755454
290.299164	19.850122	12.406956	-68.873680
290.754089	4.963121	-52.138813	-14.237735
291.208984	12.407091	71.925262	-6.791343
291.663879	12.407091	64.488747	-41.549332
292.118683	-27.304979	-44.687611	18.023220
292.573456	-17.374418	34.733383	-63.904591
293.028198	-39.720581	37.213474	-24.167767
293.482849	-52.138680	-49.654930	-93.725090
293.937561	-44.687473	34.733383	-21.685068
294.392151	156.142014	371.113037	27.946159
294.846741	57.051430	133.860718	-44.032738
295.301239	32.253189	-76.983070	-63.904591
295.755737	-81.953140	-9.927766	-14.237735
296.210175	-86.923637	-44.687611	-121.073868
296.664581	-17.374418	-67.044075	-24.167767
297.118958	-86.923637	-69.528694	-91.239426
297.573242	-34.753971	-139.140411	-73.843056
298.027557	14.888249	27.292219	-58.936058
298.481812	-42.203907	39.693600	-66.389084
298.935974	71.925400	37.213474	25.465548
299.390137	19.850122	104.139732	5.617309
299.844238	-91.894699	119.002045	20.504145
300.298340	-39.720581	-42.204041	-9.273415
300.752350	-4.963674	-166.510941	8.098619
301.206360	-39.720581	24.811581	18.023220
301.660278	-42.203907	-32.270958	-6.791343
302.114197	-67.043938	-37.237358	45.307281
302.568054	-19.856936	57.051296	-41.549332
303.021881	34.733521	2.481545	-39.065895
303.475677	44.653534	57.051296	-1.827515
303.929413	24.811714	-17.374554	-11.755454
304.383118	101.662407	284.719574	22.984966
304.836761	-24.822149	-17.374554	3.135760
305.290375	126.431976	178.415039	55.225670
305.743958	-52.138680	-47.171284	-71.358246
306.197510	-2.481785	-72.013428	-71.358246
306.650970	86.795677	106.616943	10.579959
307.104431	-39.720581	-4.963809	13.061195
307.557800	54.572029	200.679962	10.579959
308.011169	19.850122	-14.892141	-49.000134
308.464508	-86.923637	-12.409968	-58.936058
308.917755	-49.654930	-89.409248	22.984966
309.371063	-24.822149	-37.237358	-26.650570
309.824219	-62.075138	59.530590	-9.273415
310.277374	-64.559555	-52.138813	-44.032738
310.730499	-44.687473	19.850122	-41.549332
311.183563	0.000000	217.991592	3.135760
311.636597	-39.720581	4.962986	15.542327
312.089569	-94.380249	-12.409968	-4.309377
312.542511	101.662407	526.327087	99.838013
312.995422	-4.963674	-76.983070	-14.237735
313.448273	0.000000	39.693600	40.347538
313.901093	14.888249	84.317505	-14.237735
314.353882	71.925400	190.785385	-36.582565
314.806580	-14.892141	136.336853	40.347538
315.259308	-32.270958	91.751572	8.098619
315.711975	-49.654930	24.811581	-26.650570
316.164581	2.481545	217.991592	32.906940
316.617126	-2.481785	57.051296	42.827393
317.069672	19.850122	24.811581	0.654107
317.522156	-2.481785	195.732941	-41.549332
317.974579	-17.374418	-27.305115	-91.239426
318.427002	-22.339558	66.967735	-39.065895
318.879333	71.925400	203.153381	45.307281
319.331665	-12.409834	59.530590	-31.616358
319.783936	0.000000	29.772621	-4.309377
320.236176	24.811714	-0.000135	-39.065895
320.688354	-14.892141	69.446617	-61.420204
321.140503	9.925827	12.406956	-61.420204
321.592651	47.133343	141.288681	-88.753876
322.044647	14.888249	54.571896	-34.099476
322.496704	-42.203907	94.229431	-39.065895
322.948639	-22.339558	17.369171	-51.483990
323.400604	-4.963674	180.889374	-46.516384
323.852509	49.613056	267.426605	-4.309377
324.304352	-91.894699	91.751572	-51.483990
324.756165	42.173752	245.185760	25.465548
325.207916	-49.654930	99.184723	-56.451885
325.659668	-44.687473	109.094193	40.347538
326.111328	-29.787918	195.732941	-4.309377
326.562988	-52.138680	123.955292	-51.483990
327.014557	-49.654930	262.484924	50.266617
327.466156	84.317642	417.963135	70.100098
327.917664	-94.380249	232.826202	13.061195
328.369110	0.000000	183.363449	77.535919
328.820557	29.772757	213.045959	8.098619
329.271942	17.369307	215.518890	-61.420204
329.723297	-37.237225	264.955872	10.579959
330.174561	-69.528564	297.068848	15.542327
330.625854	17.369307	339.037903	-6.791343
331.077026	-64.559555	326.696899	25.465548
331.528229	22.330971	442.607208	15.542327
331.979370	-4.963674	526.327087	20.504145
332.430450	29.772757	415.498138	25.465548
332.881500	-54.622669	294.599152	-29.133345
333.332489	49.613056	437.679077	5.617309
333.783478	62.009785	592.734131	67.621239
334.234406	-47.171146	255.071609	13.061195
334.685303	29.772757	462.315796	-19.202473
335.136078	-32.270958	274.838562	-14.237735
335.586914	29.772757	462.315796	-4.309377
336.037659	47.133343	646.794495	80.014374
336.488342	-9.927631	413.033081	3.135760
336.939026	-62.075138	321.759918	70.100098
337.389648	-62.075138	319.291199	32.906940
337.840240	-19.856936	339.037903	50.266617
338.290771	-2.481785	395.775208	-29.133345
338.741272	76.882660	521.405273	60.184177
339.191681	54.572029	717.989319	60.184177
339.642120	62.009785	636.968445	50.266617
340.092468	84.317642	548.470276	-14.237735
340.542816	-7.445533	413.033081	-11.755454
340.993103	-22.339558	568.146606	42.827393
341.443329	-7.445533	528.787842	37.867439
341.893555	-96.866043	405.637451	62.663345
342.343689	-24.822149	511.560822	15.542327
342.793793	-59.590828	595.192444	77.535919
343.243866	-59.590828	533.708740	27.946159
343.693878	-44.687473	457.389160	18.023220
344.143890	-7.445533	482.018311	25.465548
344.593842	109.094330	732.709839	97.360374
345.043732	66.967865	546.010254	32.906940
345.493591	59.530727	587.817322	42.827393
345.943359	-104.323944	538.629639	94.882645
346.393158	24.811714	523.866150	-39.065895
346.842896	-44.687473	600.108704	146.892883
347.292542	-19.856936	668.897278	107.270157
347.742218	-4.963674	541.089966	5.617309
348.191803	-9.927631	496.791260	65.142410
348.641357	-96.866043	587.817322	104.792831
349.090881	-37.237225	614.855103	-1.827515
349.540314	-22.339558	617.312561	52.746193
349.989777	-17.374418	803.814514	52.746193
350.439148	-59.590828	575.523865	99.838013
350.888489	-54.622669	632.055176	65.142410
351.337799	37.213612	843.013428	107.270157
351.787048	-99.351952	720.442749	52.746193
352.236267	-57.106766	747.427246	50.266617
352.685425	-17.374418	720.442749	119.654991
353.134552	-42.203907	636.968445	40.347538
353.583649	-47.171146	852.809814	35.387245
354.032684	-54.622669	803.814514	102.315399
354.481659	94.229568	921.345154	196.385071
354.930634	-27.304979	891.980896	60.184177
355.379517	14.888249	843.013428	132.037415
355.828430	9.925827	862.604614	82.492722
356.277222	-27.304979	700.811218	30.426670
356.726013	-76.982933	698.356812	80.014374
357.174774	2.481545	651.706970	99.838013
357.623444	24.811714	762.141479	70.100098
358.072113	34.733521	602.566467	-34.099476
358.520721	-74.498131	560.768738	55.225670
358.969299	-89.409119	624.684082	-1.827515
359.417786	-69.528564	757.236938	57.705044
359.866302	-9.927631	909.111450	5.617309
360.314697	-37.237225	727.803284	119.654991
360.763123	17.369307	769.497498	179.067337
361.211456	-109.296486	820.966736	146.892883
361.659760	54.572029	722.896301	40.347538
362.108032	-39.720581	884.638123	112.224365
362.556244	-19.856936	840.564148	55.225670
363.004456	-52.138680	840.564148	35.387245
363.452576	-22.339558	1031.351929	89.927010
363.900696	-29.787918	833.215942	80.014374
364.348663	-4.963674	965.368225	193.911499
364.796722	-14.892141	958.032837	181.541641
365.244690	29.772757	1033.794678	156.794556
365.692596	-27.304979	1041.122070	193.911499
366.140472	-29.787918	1199.704102	198.858658
366.588287	7.444594	1224.070801	141.941513
367.036102	-57.106766	1187.517700	144.417191
367.483826	-74.498131	1053.333130	149.368500
367.931549	17.369307	1141.190674	213.697891
368.379181	-47.171146	1063.100220	164.219727
368.826843	22.330971	1092.393921	203.805420
369.274384	-37.237225	1031.351929	198.858658
369.721924	-59.590828	1194.829712	282.900757
370.169403	101.662407	1353.083252	169.169296
370.616821	-69.528564	1245.994263	169.169296
371.064270	12.407091	1197.266968	186.489807
371.511566	47.133343	1177.766968	166.694626
371.958923	42.173752	1233.815552	213.697891
372.406158	-17.374418	1168.015259	164.219727
372.853424	-12.409834	945.805725	154.319260
373.300568	86.795677	999.589661	136.989594
373.747711	4.963121	1087.512695	141.941513
374.194794	-54.622669	1028.909180	102.315399
374.641846	-39.720581	958.032837	119.654991
375.088898	-86.923637	982.481018	211.225021
375.535828	44.653534	1204.578247	245.837357
375.982758	-54.622669	1075.307373	134.513626
376.429596	91.751709	1202.141235	156.794556
376.876465	32.253189	1255.736084	238.422043
377.323242	14.888249	1214.325195	174.118591
377.769989	-32.270958	1338.489136	218.643600
378.216675	-47.171146	1374.968994	270.548828
378.663330	-72.013290	1326.325073	226.061279
379.109985	-44.687473	1345.786499	233.478058
379.556519	22.330971	1518.289307	302.658905
380.003052	200.680099	1811.404907	270.548828
380.449524	-14.892141	1374.968994	250.780487
380.895996	-9.927631	1336.056519	186.489807
381.342377	-44.687473	1340.921509	184.015839
381.788727	-32.270958	1233.815552	144.417191
382.235046	-22.339558	1104.596436	223.588760
382.681274	34.733521	1331.190918	211.225021
383.127533	-134.165283	865.053162	127.084694
383.573669	-27.304979	1050.891113	201.332153
384.019836	0.000000	1067.983398	211.225021
384.465912	-37.237225	1107.036377	233.478058
384.911957	2.481545	1204.578247	223.588760
385.357971	-62.075138	1163.138672	211.225021
385.803925	-79.467987	1146.068604	223.588760
386.249847	-19.856936	1292.255859	188.963791
386.695679	-14.892141	1304.425293	231.005859
387.141541	-52.138680	1124.115601	243.365768
387.587311	49.613056	1316.592773	349.559448
388.033051	-47.171146	1284.953369	211.225021
388.478729	-29.787918	1258.171143	203.805420
388.924408	-49.654930	1219.198242	221.116150
389.369995	-22.339558	1319.026001	253.251907
389.815552	-29.787918	1306.859131	208.751923
390.261078	-37.237225	1566.812500	319.942139
390.706543	17.369307	1625.000977	364.362915
391.152008	-69.528564	1583.788574	186.489807
391.597351	19.850122	1515.862305	255.723083
392.042725	-7.445533	1508.580811	235.950165
392.487976	14.888249	1304.425293	243.365768
392.933289	-96.866043	1072.866089	164.219727
393.378479	-27.304979	1067.983398	235.950165
393.823639	0.000000	1182.642578	203.805420
394.268768	-67.043938	1070.424927	213.697891
394.713837	59.530727	1535.275757	315.004486
395.158905	29.772757	1438.159912	270.548828
395.603851	-19.856936	1406.571167	255.723083
396.048798	-101.837822	1457.592651	248.308975
396.493683	0.000000	1440.589355	401.356567
396.938568	71.925400	1311.725952	322.410706
397.383392	71.925400	1426.011719	344.624237
397.828156	-96.866043	1426.011719	216.170792
398.272888	-12.409834	1646.810669	287.840942
398.717560	-37.237225	1852.501587	337.220642
399.162201	-29.787918	2004.624146	332.284332
399.606781	-89.409119	2067.324707	418.612915
400.051361	-24.822149	2120.343262	428.471619
400.495819	62.009785	2129.979248	401.356567
400.940308	-104.323944	2182.959473	472.817078
401.384705	0.000000	2435.378662	529.436462
401.829102	76.882660	2579.299561	514.670959
402.273438	32.253189	2399.362549	450.648102
402.717682	2.481545	2363.332031	438.328827
403.161926	-39.720581	2296.036133	401.356567
403.606110	-64.559555	2406.566650	453.111725
404.050293	24.811714	2519.359863	531.897156
404.494385	-106.810158	2444.980225	556.498108
404.938446	-86.923637	2336.900391	583.548523
405.382477	-91.894699	2365.734375	549.118774
405.826447	57.051430	2428.176270	477.742401
406.270386	12.407091	2384.952148	536.818054
406.714233	128.908401	2507.367432	494.978333
407.158081	-27.304979	2305.652588	573.713257
407.601868	-91.894699	2370.539307	492.516296
408.045624	19.850122	2432.977783	475.279724
408.489319	29.772757	2598.472168	554.038391
408.933014	17.369307	2744.530273	630.246033
409.376617	17.369307	2512.164551	541.738647
409.820190	-12.409834	2375.343750	482.667511
410.263702	-12.409834	2490.574951	600.756531
410.707184	-42.203907	2528.952881	544.198730
411.150635	-47.171146	2557.725586	453.111725
411.594025	-22.339558	2521.758545	544.198730
412.037384	-54.622669	2586.489258	563.876526
412.480682	-72.013290	2742.137939	576.172119
412.923981	-39.720581	2696.667725	586.007019
413.367126	-49.654930	2624.827148	536.818054
413.810333	-32.270958	2615.244629	539.278381
414.253479	-12.409834	2751.708008	568.795044
414.696533	-14.892141	2749.315186	578.631042
415.139587	-37.237225	2646.385010	549.118774
415.582581	57.051430	3040.742676	664.633545
416.025543	2.481545	2844.963379	701.458130
416.468414	-94.380249	2856.912598	558.957703
416.911285	-32.270958	2797.151611	632.702698
417.354065	64.488876	3047.898438	777.498962
417.796875	-67.043938	2734.960205	725.996765
418.239594	-181.445679	2773.236816	721.089661
418.682281	59.530727	2933.352295	684.275818
419.124908	-106.810158	2864.081543	649.898193
419.567505	54.572029	3090.817871	740.715576
420.010071	-69.528564	2766.060791	647.442139
420.452545	-2.481785	2916.636230	755.431213
420.895020	-7.445533	2775.628418	657.266418
421.337372	39.693733	3057.437256	718.636047
421.779785	116.525337	3309.895752	858.352966
422.222107	52.092663	3326.544922	821.612732
422.664368	22.330971	2945.290283	782.401917
423.106628	-42.203907	2923.800537	581.089844
423.548798	-67.043938	2813.888672	681.820862
423.990967	-64.559555	2916.636230	733.356445
424.433044	7.444594	2890.362305	799.559204
424.875092	-54.622669	2890.362305	730.903503
425.317078	-37.237225	2997.801270	733.356445
425.759064	-52.138680	2883.195557	738.262634
426.200989	-42.203907	2852.133301	728.450195
426.642853	-22.339558	2780.411865	767.691833
427.084686	34.733521	2909.471680	706.366638
427.526459	24.811714	3000.187256	748.073975
427.968201	-12.409834	3052.668213	718.636047
428.409912	7.444594	2722.995361	632.702698
428.851563	2.481545	2887.973633	779.950439
429.293121	-9.927631	2878.417236	728.450195
429.734711	-29.787918	2622.431641	730.903503
430.176239	-7.445533	2620.035645	689.185608
430.617706	-57.106766	2392.157471	640.072876
431.059113	-27.304979	2447.380859	674.455566
431.500488	-37.237225	2588.886230	755.431213
431.941833	-9.927631	2950.065430	838.760559
432.383087	-116.755981	3014.503174	875.491699
432.824341	24.811714	3245.651123	1005.121216
433.265533	-62.075138	3086.050049	966.012939
433.706726	-47.171146	3081.282227	963.567932
434.147827	12.407091	3140.867432	860.801636
434.588867	-27.304979	3088.434082	968.457642
435.029877	-19.856936	3264.690918	865.698730
435.470825	-69.528564	3452.514404	1002.677551
435.911804	-17.374418	3687.402588	990.458069
436.352661	29.772757	3765.580811	1100.359131
436.793518	-17.374418	3592.562012	1024.667480
437.234283	22.330971	3891.018066	1063.744019
437.675049	-119.242615	3578.328857	978.236572
438.115723	-54.622669	3604.422363	1007.564819
438.556396	-106.810158	3502.383789	951.341492
438.997040	49.613056	3592.562012	1117.439819
439.437561	123.955429	3770.317139	1075.951050
439.878113	-19.856936	3680.291992	1071.068481
440.318573	2.481545	3722.945068	1110.119873
440.759033	-24.822149	3760.844238	1095.478149
441.199341	27.292219	3886.287109	997.790161
441.639709	-62.075138	3701.620850	1000.234009
442.079956	42.173752	3864.996338	1095.478149
442.520264	-29.787918	3841.334229	1075.951050
442.960510	49.613056	4002.132080	961.122803
443.400604	37.213612	3846.066895	921.990051
443.840759	-39.720581	3775.052490	917.097107
444.280762	-62.075138	3725.313965	919.543457
444.720825	-2.481785	4063.550293	914.650391
445.160767	-17.374418	3895.748779	890.178711
445.600739	-64.559555	3734.790039	868.146912
446.040558	12.407091	3765.580811	897.521179
446.480438	-69.528564	3869.727539	887.731018
446.920258	-47.171146	4018.670898	1012.451782
447.359955	-79.467987	4141.453613	1068.626953
447.799713	-91.894699	4301.806641	1224.713257
448.239319	-42.203907	4398.377441	1188.160156
448.678955	-14.892141	4579.516602	1390.197021
449.118500	-37.237225	4945.614258	1535.915649
449.558014	-19.856936	4964.356934	1720.105225
449.997498	-54.622669	5034.615723	1894.214722
450.436951	-144.115707	5214.751953	1944.927612
450.876343	-14.892141	5354.926758	1860.388916
451.315674	37.213612	5345.586914	1899.045898
451.754974	-62.075138	4966.699707	1647.449585
452.194183	14.888249	5200.725098	1565.026611
452.633392	-91.894699	4797.908203	1460.661743
453.072510	-59.590828	4736.895020	1317.234375
453.511688	2.481545	4457.221191	1258.813232
453.950684	17.369307	4701.679688	1273.422607
454.389740	84.317642	4797.908203	1334.265259
454.828735	111.571480	4929.211914	1339.130371
455.267639	9.925827	4696.983398	1290.463501
455.706543	34.733521	4711.071289	1261.248413
456.145325	2.481545	4746.283203	1251.507568
456.584137	190.785522	4800.253906	1224.713257
457.022858	-101.837822	4581.867676	1005.121216
457.461578	4.963121	4591.268555	1044.208496
457.900208	64.488876	4417.210938	1002.677551
458.338867	-32.270958	4431.333496	992.902222
458.777405	-91.894699	4363.056641	951.341492
459.215912	47.133343	4494.864746	1019.781372
459.654388	62.009785	4603.019531	1007.564819
460.092773	131.384613	4443.101563	1083.274414
460.531189	-34.753971	4146.172852	1022.224426
460.969513	0.000000	4436.041016	990.458069
461.407806	-7.445533	4348.924805	1058.860596
461.846008	47.133343	4689.938965	1139.394775
462.284241	-42.203907	4558.359375	1249.072021
462.722351	-67.043938	4711.071289	1183.285278
463.160461	42.173752	4889.367676	1295.331665
463.598541	12.407091	5020.566895	1365.883911
464.036530	27.292219	5086.111328	1307.500488
464.474518	19.850122	5008.858887	1399.920288
464.912384	-44.687473	5207.739258	1671.675293
465.350281	-4.963674	5541.569336	1877.303589
465.788086	-9.927631	6236.600586	2217.291748
466.225891	-17.374418	6740.888184	2855.153076
466.663605	-99.351952	7321.329102	3474.516357
467.101318	7.444594	7901.460938	4156.234375
467.539001	-32.270958	7960.934570	3988.577148
467.976563	22.330971	8034.096191	3908.198486
468.414124	29.772757	7516.522949	3434.136719
468.851593	-74.498131	7401.739258	3041.372314
469.289063	-9.927631	7056.772461	2723.626465
469.726440	-17.374418	6690.088379	2282.242920
470.163849	89.273743	6563.000000	2005.260010
470.601135	-37.237225	6324.650879	1913.537598
471.038422	-57.106766	6262.095215	1906.291870
471.475677	34.733521	6368.652344	1712.842773
471.912811	-154.067993	6213.418945	1715.263672
472.350006	-27.304979	6465.864258	1586.852661
472.787048	-4.963674	6180.957520	1615.945068
473.224121	76.882660	6234.282715	1548.046509
473.661072	-32.270958	6278.316406	1596.551270
474.098053	52.092663	6301.485352	1579.578003
474.534943	-4.963674	6606.917969	1833.801880
474.971802	-24.822149	7047.560547	2224.510742
475.408630	22.330971	7296.047363	2469.613037
475.845367	4.963121	7194.869629	2354.354980
476.282104	54.572029	7072.891113	2104.112549
476.718750	-29.787918	6685.469238	1966.652466
477.155426	32.253189	7121.236816	1995.609863
477.591949	17.369307	6759.354980	1749.149414
478.028503	34.733521	6703.944824	1758.828247
478.464966	-27.304979	6782.435547	1751.569214
478.901428	19.850122	6655.440430	1550.472412
479.337860	-62.075138	6671.610840	1649.872559
479.774170	14.888249	6890.857910	1734.628784
480.210510	-39.720581	6823.970215	1688.629150
480.646698	14.888249	6932.356934	1649.872559
481.082947	-69.528564	7137.347168	1676.519653
481.519073	-29.787918	7364.986328	1802.369751
481.955200	-34.753971	7420.110352	1855.555420
482.391266	9.925827	7539.467773	1821.713867
482.827301	-44.687473	7605.985352	1891.799072
483.263306	19.850122	7940.350586	1884.551758
483.699188	14.888249	7926.626465	1954.583618
484.135101	81.839378	8011.236816	2063.138916
484.570923	-29.787918	7803.042480	1964.238770
485.006744	-57.106766	7919.763672	2017.321533
485.442413	12.407091	7548.644531	1935.270508
485.878174	119.002182	7603.690918	2039.027466
486.313782	37.213612	7254.666016	1998.022461
486.749390	22.330971	7289.150879	1894.214722
487.184998	-12.409834	7449.960449	1857.972290
487.620453	19.850122	7821.358887	1978.719116
488.055939	-7.445533	7860.270996	2026.969238
488.491333	-52.138680	7821.358887	1983.545532
488.926727	-52.138680	8148.329590	2116.159912
489.362030	34.733521	8269.310547	2145.066650
489.797302	-39.720581	8554.212891	2186.001465
490.232513	17.369307	8811.250977	2414.403809
490.667755	37.213612	8749.879883	2407.199951
491.102905	64.488876	9330.689453	2555.960693
491.537964	-24.822149	8963.428711	2505.601318
491.973022	44.653534	9038.319336	2632.645264
492.407990	19.850122	9085.956055	2500.803711
492.842957	24.811714	9371.438477	2615.875732
493.277832	-34.753971	9097.294922	2565.549316
493.712738	-22.339558	9289.930664	2651.806885
494.147491	-57.106766	9215.173828	2668.569580
494.582275	-74.498131	9624.717773	2764.299805
495.017029	-2.481785	9902.359375	2936.369873
495.451660	9.925827	10073.648438	3027.060303
495.886292	-44.687473	10219.986328	3550.481934
496.320831	9.925827	11289.641602	4274.147949
496.755402	14.888249	12893.645508	5462.897461
497.189850	-27.304979	15337.647461	7801.356445
497.624298	52.092663	19346.226563	12032.825195
498.058655	59.530727	23482.644531	16663.847656
498.493042	-7.445533	25974.044922	19047.214844
498.927368	24.811714	26038.333984	18688.656250
499.361572	66.967865	24243.785156	16164.689453
499.795807	49.613056	21292.919922	13153.244141
500.229919	27.292219	18159.058594	10900.887695
500.664063	54.572029	15625.009766	8623.099609
501.098083	-29.787918	13457.762695	6443.335938
501.532104	12.407091	11724.886719	5138.201660
501.966064	2.481545	10541.432617	4085.424805
502.399994	-4.963674	9875.295898	3529.122314
502.833893	9.925827	9452.898438	3067.604736
503.267700	-59.590828	9067.810547	2778.650391
503.701477	-27.304979	8833.975586	2792.999512
504.135193	-116.755981	8369.665039	2625.458984
504.568909	19.850122	8191.712402	2472.012939
505.002502	-9.927631	8365.105469	2424.007568
505.436127	-32.270958	8171.164063	2448.013672
505.869629	24.811714	8344.583984	2484.010010
506.303162	32.253189	8652.081055	2414.403809
506.736603	-84.438271	8463.110352	2375.977295
507.169983	-7.445533	8547.382813	2507.999756
507.603363	-67.043938	8326.338867	2383.183350
508.036621	-47.171146	8433.488281	2448.013672
508.469940	-29.787918	8469.944336	2507.999756
508.903107	-54.622669	8638.428711	2424.007568
509.336304	-146.603638	8718.045898	2474.412109
509.769379	-12.409834	8711.223633	2467.213379
510.202484	24.811714	8779.431641	2424.007568
510.635529	-29.787918	8656.631836	2383.183350
511.068481	-22.339558	8902.124023	2584.724854
511.501434	-19.856936	8995.205078	2575.137695
511.934265	-81.953140	8865.782227	2608.688232
512.367126	52.092663	9174.381836	2685.329590
512.799927	-76.982933	8561.043945	2397.594238
513.232605	9.925827	8636.154297	2539.177246
513.665344	79.361000	8690.753906	2539.177246
514.097961	-14.892141	9067.810547	2797.782227
514.530579	-76.982933	10141.207031	3730.677246
514.963135	-19.856936	11903.127930	5565.493652
515.395691	79.361000	13081.851563	7098.824219
515.828064	64.488876	13307.475586	7128.748535
516.260498	-74.498131	12199.057617	5681.974121
516.692871	-54.622669	10662.642578	4667.073242
517.125183	91.751709	9825.666016	4318.921387
517.557373	34.733521	9206.111328	3590.815674
517.989624	42.173752	8954.347656	3086.678955
518.421753	0.000000	8415.255859	2749.946289
518.853943	-126.703529	8143.761719	2491.207520
519.286072	2.481545	8107.216309	2579.931396
519.718018	-89.409119	8504.114258	2589.518066
520.150024	-34.753971	8326.338867	2486.409180
520.581909	-42.203907	8531.442383	2529.585205
521.013855	-2.481785	8095.793457	2524.788818
521.445679	-84.438271	8353.704102	2519.992188
521.877502	-129.190582	8381.063477	2486.409180
522.309204	19.850122	8410.697266	2534.381348
522.740906	-7.445533	8442.603516	2448.013672
523.172546	-49.654930	8267.028320	2344.743408
523.604187	-52.138680	8164.314453	2412.002441
524.035767	-9.927631	8690.753906	2505.601318
524.467224	-101.837822	8066.091309	2351.951904
524.898682	-4.963674	8212.257813	2565.549316
525.330078	54.572029	8114.069336	2404.798828
525.761475	-54.622669	7995.233887	2337.533936
526.192749	-79.467987	7679.342773	2339.937012
526.624023	-62.075138	7208.671875	2263.003174
527.055237	0.000000	7325.925781	2178.779297
527.486389	-99.351952	7164.961914	2236.541260
527.917542	-9.927631	7615.156250	2248.570313
528.348572	99.184853	7470.621582	2272.623291
528.779663	-54.622669	7523.407227	2284.647217
529.210571	-54.622669	7557.820313	2219.697754
529.641541	-12.409834	7387.957520	2306.286621
530.072388	-52.138680	7282.254395	2462.413818
530.503235	24.811714	7661.007813	2339.937012
530.934082	-89.409119	7530.291016	2361.562744
531.364746	-24.822149	7459.143555	2313.498779
531.795532	7.444594	7514.228027	2272.623291
532.226135	-2.481785	7277.657227	2332.727295
532.656738	4.963121	6987.667480	2205.258301
533.087280	14.888249	7238.569336	2207.665039
533.517822	49.613056	7148.853516	2226.916992
533.948242	34.733521	7321.329102	2294.265625
534.378662	-86.923637	7010.706543	2253.381592
534.809082	-22.339558	7348.904297	2414.403809
535.239319	57.051430	7514.228027	2496.005615
535.669617	0.000000	7775.563965	2548.767822
536.099792	-79.467987	7647.253418	2555.960693
536.529968	-74.498131	7560.114258	2424.007568
536.960083	12.407091	7296.047363	2558.357910
537.390137	71.925400	7649.546875	2474.412109
537.820190	-22.339558	7266.162598	2448.013672
538.250183	-37.237225	7259.264160	2335.130615
538.680115	-67.043938	7358.094727	2517.593994
539.109985	99.184853	7729.752930	2553.562744
539.539795	-12.409834	7171.863770	2496.005615
539.969543	12.407091	7095.914551	2296.670166
540.399292	57.051430	7093.612793	2428.809326
540.828979	32.253189	7286.852539	2486.409180
541.258606	-76.982933	6950.796387	2385.585205
541.688171	-19.856936	6858.571777	2402.396973
542.117737	-69.528564	7100.519531	2359.160400
542.547302	-74.498131	7006.099121	2397.594238
542.976685	-101.837822	6830.891113	2390.388916
543.406128	22.330971	7013.009766	2460.014160
543.835388	39.693733	6911.608887	2531.983154
544.264771	-79.467987	7031.437988	2522.390869
544.693970	12.407091	7123.538086	2531.983154
545.123230	2.481545	7128.141113	2615.875732
545.552307	-57.106766	7472.916992	2883.826172
545.981506	0.000000	7832.805176	2981.725830
546.410583	-99.351952	7775.563965	3193.901367
546.839539	-144.115707	7791.594238	3134.347656
547.268555	-52.138680	7619.742676	3229.615967
547.697449	86.795677	7803.042480	3381.857178
548.126282	-59.590828	7479.803711	3538.616211
548.555054	47.133343	7583.051270	3920.022461
548.983887	-86.923637	7809.912109	4050.002441
549.412598	59.530727	7766.403320	4655.329102
549.841309	96.707191	8155.180664	4920.456055
550.269958	-32.270958	8237.364258	5385.891602
550.698486	29.772757	8435.766602	5712.240723
551.127075	27.292219	8576.978516	6035.388184
551.555481	-116.755981	8608.845703	6408.619141
551.983948	22.330971	8540.551758	6475.729004
552.412292	-17.374418	8947.537109	6720.717773
552.840698	0.000000	8883.954102	6845.340332
553.268860	32.253189	8868.053711	6999.795410
553.697205	4.963121	9006.552734	7041.258301
554.125366	22.330971	9206.111328	7121.842773
554.553467	-94.380249	8865.782227	7140.255859
554.981628	7.444594	8922.561523	7195.476563
555.409607	-76.982933	9203.843750	7252.972656
555.837646	71.925400	9040.587891	7457.452637
556.265564	59.530727	8992.935547	7867.741699
556.693481	-67.043938	9215.173828	7913.503906
557.121338	34.733521	9172.114258	8144.363770
557.549133	-64.559555	9004.283203	8527.488281
557.976929	-114.269333	9135.843750	8995.802734
558.404602	99.184853	9654.086914	9584.638672
558.832275	-9.927631	9330.689453	9812.722656
559.259888	-27.304979	9423.487305	10069.736328
559.687439	-54.622669	9803.101563	10404.988281
560.114929	-76.982933	9818.896484	10880.722656
560.542419	-12.409834	9733.128906	11200.810547
560.969788	-29.787918	10044.363281	11319.282227
561.397156	-37.237225	10336.955078	11287.996094
561.824524	-81.953140	10042.110352	11194.101563
562.251770	-49.654930	9979.013672	11584.979492
562.679016	-59.590828	10134.451172	11743.305664
563.106140	-2.481785	10327.960938	11747.763672
563.533264	14.888249	10332.458008	11992.766602
563.960327	-42.203907	10586.335938	11914.848633
564.387329	22.330971	10705.267578	12108.468750
564.814331	-7.445533	10965.252930	12288.550781
565.241272	-57.106766	11077.185547	12590.517578
565.668213	29.772757	12303.518555	13341.217773
566.094971	54.572029	13647.685547	14395.474609
566.521790	-39.720581	15410.056641	15800.976563
566.948425	-119.242615	18548.167969	18647.117188
567.375183	17.369307	21946.949219	21850.906250
567.801819	-47.171146	29329.652344	27806.339844
568.228394	47.133343	38898.988281	37058.511719
568.654846	-57.106766	49419.261719	47208.132813
569.081421	84.317642	54474.992188	51308.390625
569.507874	62.009785	52715.976563	48524.867188
569.934265	34.733521	46077.132813	41966.542969
570.360596	-2.481785	38351.503906	36205.730469
570.786865	-81.953140	31744.052734	31482.203125
571.213074	-2.481785	26843.710938	27204.078125
571.639282	49.613056	22832.925781	23300.320313
572.065430	12.407091	19562.765625	20335.876953
572.491516	-84.438271	16637.007813	18332.330078
572.917603	-54.622669	14661.090820	17158.273438
573.343567	-29.787918	13711.694336	16171.261719
573.769531	-59.590828	12946.804688	16136.215820
574.195435	69.446754	12844.905273	16044.211914
574.621277	-79.467987	12290.186523	16171.261719
575.047119	-4.963674	12285.742188	16394.615234
575.472839	-141.628006	12176.824219	16797.328125
575.898560	37.213612	12889.215820	17274.181641
576.324158	-94.380249	12791.720703	17733.351563
576.749817	12.407091	13353.898438	18218.660156
577.175293	-42.203907	13446.714844	18596.839844
577.600830	-44.687473	13634.440430	19141.240234
578.026306	89.273743	14361.876953	19801.808594
578.451721	19.850122	14619.306641	20504.498047
578.877136	-62.075138	15155.462891	20804.628906
579.302429	-2.481785	15664.478516	21824.556641
579.727661	-49.654930	16838.320313	22886.326172
580.152832	-32.270958	17273.603516	23064.646484
580.578064	-74.498131	18340.496094	23924.294922
581.003113	-86.923637	18823.625000	24986.982422
581.428223	-42.203907	19934.712891	25879.318359
581.853271	-34.753971	21121.875000	26890.925781
582.278198	-72.013290	22414.994141	27426.257813
582.703125	-34.753971	23934.746094	28088.728516
583.127930	-57.106766	25066.039063	28876.244141
583.552795	128.908401	26783.767578	29486.037109
583.977539	-9.927631	27701.267578	29512.746094
584.402283	-49.654930	29516.609375	29397.009766
584.826965	-37.237225	31134.587891	29254.566406
585.251587	44.653534	32575.386719	28211.050781
585.676208	22.330971	33281.625000	26380.453125
586.100647	-42.203907	33916.261719	24544.792969
586.525208	69.446754	33332.683594	21949.726563
586.949524	-27.304979	30778.574219	18712.705078
587.373962	2.481545	27221.261719	15338.224609
587.798218	-104.323944	22472.162109	11899.260742
588.222534	-14.892141	18156.873047	8918.618164
588.646729	-49.654930	13991.808594	6605.216797
589.070984	-86.923637	11224.815430	5107.789063
589.495117	-37.237225	9461.947266	3912.928223
589.919128	9.925827	8125.490723	3120.049805
590.343201	12.407091	7782.434570	3143.878662
590.767151	-91.894699	8344.583984	3400.870850
591.191101	14.888249	10195.231445	4323.633789
591.614990	7.444594	12709.700195	5968.039063
592.038818	-62.075138	15964.760742	8185.465820
592.462524	-57.106766	20083.539063	11211.990234
592.886292	27.292219	23767.080078	14973.761719
593.310059	81.839378	26932.527344	18150.892578
593.733582	-14.892141	29227.271484	21278.148438
594.157227	-9.927631	31032.242188	24001.531250
594.580750	-4.963674	32179.818359	26728.857422
595.004272	-9.927631	33115.117188	28275.550781
595.427673	-17.374418	33434.781250	29842.166016
595.851074	-84.438271	33556.847656	30605.582031
596.274353	-19.856936	33208.367188	31055.076172
596.697632	-49.654930	32328.732422	31540.035156
597.120911	29.772757	31477.169922	30972.753906
597.544067	39.693733	31105.664063	30699.048828
597.967224	-29.787918	30233.316406	30347.414063
598.390320	0.000000	29354.134766	29735.324219
598.813354	39.693733	28570.828125	29149.966797
599.236328	-104.323944	27472.337891	28006.449219
599.659241	-22.339558	26834.830078	27539.597656
600.082153	-37.237225	26095.978516	26577.927734
600.505005	12.407091	24968.703125	25349.908203
600.927795	-57.106766	24318.869141	24883.027344
601.350525	-34.753971	23566.412109	24500.597656
601.773254	2.481545	22663.505859	23458.980469
602.195862	-109.296486	22061.169922	22499.128906
602.618408	-42.203907	21336.787109	22048.568359
603.040955	37.213612	21084.603516	21444.859375
603.463440	-64.559555	20258.667969	20497.929688
603.885925	-34.753971	20017.876953	20077.550781
604.308350	7.444594	19499.332031	19274.634766
604.730652	-44.687473	18766.781250	18867.925781
605.152893	7.444594	18355.798828	18179.312500
605.575195	-104.323944	17999.482422	17836.101563
605.997375	-47.171146	17271.417969	17136.400391
606.419495	-79.467987	16921.457031	16832.333984
606.841553	24.811714	16556.029297	16475.615234
607.263672	-52.138680	16078.686523	15976.293945
607.685608	7.444594	16304.269531	15439.156250
608.107605	-64.559555	15640.358398	14951.792969
608.529480	-84.438271	15475.870117	14481.299805
608.951294	9.925827	15100.569336	14146.648438
609.373108	-24.822149	14518.124023	14164.271484
609.794800	-69.528564	14377.286133	13453.924805
610.216553	-24.822149	14113.020508	12991.674805
610.638123	37.213612	14062.338867	13024.884766
611.059753	-22.339558	13535.075195	12677.023438
611.481262	-44.687473	13700.659180	12488.435547
611.902832	-54.622669	13356.108398	12015.023438
612.324219	-29.787918	13269.887695	11734.390625
612.745605	-42.203907	13258.832031	11747.763672
613.166931	-54.622669	12840.474609	11343.860352
613.588196	-72.013290	12918.011719	11292.465820
614.009460	-64.559555	12731.871094	10876.242188
614.430664	-47.171146	12625.427734	11156.080078
614.851807	42.173752	13960.946289	12492.875000
615.272827	19.850122	16113.733398	14604.492188
615.693909	9.925827	19243.439453	18288.609375
616.114929	-47.171146	20817.197266	19171.853516
616.535889	-19.856936	19801.232422	18627.445313
616.956787	-42.203907	17835.525391	15689.173828
617.377563	19.850122	16028.298828	13879.942383
617.798340	49.613056	14476.319336	13217.394531
618.219055	-19.856936	13630.025391	12392.961914
618.639832	2.481545	12736.304688	11187.392578
619.060364	19.850122	11989.954102	10195.825195
619.481018	-7.445533	11472.805664	9410.507813
619.901611	-111.782791	10938.377930	8857.292969
620.322083	-42.203907	10714.239258	8397.622070
620.742493	-22.339558	10375.174805	8406.740234
621.162842	-12.409834	9794.074219	8078.118164
621.583191	-27.304979	9913.634766	7803.646973
622.003418	-34.753971	9554.658203	7670.780273
622.423706	2.481545	9724.097656	7602.003418
622.843872	-22.339558	9398.597656	7374.781738
623.264038	4.963121	9138.111328	7183.974609
623.684143	-84.438271	8779.431641	7080.405762
624.104126	0.000000	8995.205078	6769.196777
624.524170	-14.892141	8947.537109	6810.735352
624.944031	-89.409119	8808.978516	6626.014648
625.364014	17.369307	8690.753906	6487.295410
625.783752	-39.720581	8410.697266	6274.292969
626.203552	-57.106766	8253.337891	6348.421875
626.623230	-67.043938	8271.591797	6244.165527
627.042969	14.888249	8280.718750	6179.250000
627.462585	24.811714	7759.532227	5891.355957
627.882141	54.572029	7658.715820	5649.371094
628.301697	-7.445533	7358.094727	5591.128906
628.721130	64.488876	7548.644531	5663.344727
629.140625	-106.810158	7095.914551	5336.861816
629.559998	-62.075138	7424.704102	5250.427734
629.979309	-17.374418	7183.367188	5276.130859
630.398560	17.369307	6976.145996	5170.944824
630.817810	-99.351952	7065.982910	4988.398926
631.237000	-62.075138	6987.667480	5117.146973
631.656067	-89.409119	6969.232910	5128.844238
632.075195	-9.927631	6690.088379	5028.208984
632.494202	-2.481785	6888.552246	4913.425293
632.913208	-79.467987	6826.276855	4983.714844
633.332092	49.613056	7006.099121	4702.299316
633.750977	-89.409119	6805.512207	4692.906738
634.169739	37.213612	6837.812012	4793.834473
634.588562	-69.528564	6747.813477	4570.734375
635.007263	12.407091	6943.881836	4657.678223
635.425964	-9.927631	7148.853516	4601.289551
635.844543	-59.590828	6978.450195	4742.208496
636.263123	7.444594	6950.796387	4377.807617
636.681641	-9.927631	6957.710449	4436.661621
637.100037	-47.171146	7084.403320	4514.301758
637.518494	24.811714	7289.150879	4450.782227
637.936829	22.330971	7176.465820	4474.312500
638.355164	-29.787918	7141.949707	4297.715332
638.773438	-19.856936	7266.162598	4434.308105
639.191650	-47.171146	7171.863770	4196.339355
639.609863	-86.923637	7098.216797	4394.289551
640.027893	0.000000	7098.216797	4267.076660
640.445984	-47.171146	7065.982910	4304.784668
640.863953	-32.270958	7003.795410	4248.217773
641.281921	-86.923637	7084.403320	4028.743896
641.699829	-99.351952	7019.920898	4090.146973
642.117676	7.444594	7406.332031	4205.773438
642.535461	-9.927631	6782.435547	4005.118164
642.953247	-59.590828	7201.770508	3953.123535
643.370972	64.488876	7417.814453	3894.007324
643.788635	-57.106766	7148.853516	3983.850586
644.206177	27.292219	7137.347168	3950.759277
644.623718	-27.304979	7112.029297	3962.579102
645.041260	-121.729477	6784.743652	3948.395264
645.458618	-49.654930	7033.741211	3853.790039
645.876099	-29.787918	6860.878418	3697.506836
646.293396	7.444594	6983.059570	3782.780762
646.710693	-64.559555	6874.715820	3796.986572
647.127991	-52.138680	6539.878906	3633.505371
647.545166	-17.374418	6747.813477	3751.995117
647.962341	-47.171146	6377.913574	3567.092041
648.379333	-94.380249	6477.431641	3517.253906
648.796448	-39.720581	6308.435547	3619.277832
649.213379	69.446754	6509.815918	3564.719482
649.630310	-42.203907	6431.153809	3543.362549
650.047180	-49.654930	6551.440430	3507.758057
650.463989	-14.892141	6491.311523	3597.932129
650.880859	44.653534	6625.404785	3462.641602
651.297546	-47.171146	6502.877441	3400.870850
651.714233	0.000000	6565.312012	3365.217041
652.130859	7.444594	6526.004883	3377.103027
652.547485	-2.481785	6424.210938	3279.595459
652.963928	71.925400	6793.974121	3365.217041
653.380432	-42.203907	6634.647461	3279.595459
653.796814	-69.528564	6597.673340	3298.629150
654.213196	4.963121	6669.300781	3296.250000
654.629578	-12.409834	6761.663574	3455.516113
655.045837	76.882660	6694.707031	3291.492188
655.462036	-4.963674	6458.922852	3270.077881
655.878174	7.444594	6359.390137	3024.675049
656.294312	-57.106766	6025.488281	3193.901367
656.710327	-89.409119	5981.363281	3072.373535
657.126404	-86.923637	6192.551758	3120.049805
657.542358	101.662407	6544.503906	3258.179199
657.958252	-9.927631	6322.333984	3158.173584
658.374084	-69.528564	6269.047363	3210.569824
658.789917	-19.856936	6650.820313	3255.799072
659.205688	-2.481785	6662.370605	3215.331787
659.621338	-64.559555	6616.161621	3093.830811
660.037048	225.409470	7220.172363	3224.855225
660.452637	-24.822149	6904.692383	3098.598389
660.868164	76.882660	6969.232910	3248.659180
661.283691	2.481545	6586.116699	3215.331787
661.699158	-47.171146	6761.663574	3069.989502
662.114502	-42.203907	6980.755371	3174.848389
662.529846	-29.787918	6731.653320	3079.526855
662.945129	34.733521	6586.116699	3015.132080
663.360413	-64.559555	6625.404785	3158.173584
663.775635	9.925827	6530.629883	2974.565674
664.190674	-17.374418	6493.625000	3060.451172
664.605835	84.317642	6987.667480	3043.757324
665.020813	-42.203907	6817.048828	2874.269287
665.435791	62.009785	6821.663574	3093.830811
665.850769	-14.892141	6542.191406	2933.982422
666.265625	0.000000	6777.819824	3003.202637
666.680420	76.882660	6740.888184	2905.324463
667.095215	37.213612	7125.839844	2957.857178
667.509949	-32.270958	6789.359375	2855.153076
667.924622	-29.787918	6664.680664	2838.423584
668.339233	-29.787918	6560.687988	2847.983887
668.753784	-34.753971	6563.000000	2945.920410
669.168335	19.850122	6844.731934	2893.381348
669.582825	52.092663	7107.424805	3010.360596
669.997192	101.662407	6752.430176	2955.469482
670.411560	-17.374418	6835.504883	3007.974609
670.825867	-49.654930	6936.966797	2962.631348
671.240173	37.213612	7148.853516	2976.952393
671.654358	17.369307	6690.088379	3058.066650
672.068481	-19.856936	6925.441406	2962.631348
672.482605	-99.351952	6648.509766	2917.266602
672.896667	-27.304979	6733.961914	2926.818359
673.310669	24.811714	6634.647461	2910.101318
673.724609	17.369307	6930.051758	2902.936279
674.138489	-14.892141	6796.281738	2807.346680
674.552307	-69.528564	6509.815918	2819.300537
674.966064	-109.296486	6623.094238	2795.390625
675.379822	17.369307	6927.746582	2749.946289
675.793579	-81.953140	6572.247070	2747.553955
676.207153	34.733521	6641.579102	2802.564697
676.620789	-12.409834	6768.587891	2704.479736
677.034241	54.572029	6604.606445	2843.203857
677.447754	44.653534	6551.440430	2663.780518
677.861206	84.317642	6662.370605	2702.086426
678.274597	-7.445533	6558.375977	2637.436035
678.687866	49.613056	6408.008789	2685.329590
679.101135	66.967865	6618.472656	2728.412598
679.514404	9.925827	6343.179688	2539.177246
679.927551	12.407091	6262.095215	2517.593994
680.340698	-7.445533	6071.917480	2599.103516
680.753723	-86.923637	6236.600586	2505.601318
681.166748	-22.339558	6141.528809	2467.213379
681.579712	-49.654930	6148.487305	2460.014160
681.992615	12.407091	6465.864258	2481.611084
682.405457	148.715866	6303.802246	2491.207520
682.818298	49.613056	6139.208496	2519.992188
683.231018	131.384613	6206.463867	2397.594238
683.643738	32.253189	6030.131348	2395.192383
684.056335	-81.953140	5730.248047	2291.861328
684.468994	-7.445533	5944.194336	2246.164795
684.881531	-54.622669	5769.810547	2303.882568
685.293945	-14.892141	5814.011230	2207.665039
685.706482	-37.237225	5506.595703	2224.510742
686.118774	24.811714	5520.586426	2193.223145
686.531128	62.009785	5093.131836	2108.931641
686.943481	-79.467987	4061.188477	1768.506348
687.355713	57.051430	3808.198486	1669.253418
687.767883	-64.559555	3226.607910	1477.661011
688.179932	59.530727	3409.750244	1472.804321
688.592041	-151.579865	3174.219727	1467.947754
689.004089	-44.687473	3050.282959	1392.627930
689.416016	-49.654930	3174.219727	1458.233032
689.827881	-7.445533	3047.898438	1416.932861
690.239868	-52.138680	3155.162842	1506.793579
690.651611	-2.481785	3445.388184	1589.277344
691.063354	-34.753971	3673.181641	1516.502197
691.475098	-14.892141	3796.361816	1463.090576
691.886719	4.963121	4174.486816	1664.408569
692.298340	-2.481785	3950.135742	1708.000488
692.709900	4.963121	4122.572754	1778.182861
693.121460	59.530727	4172.127441	1715.263672
693.532837	-44.687473	4174.486816	1812.042480
693.944214	-27.304979	4127.293457	1654.718018
694.355652	39.693733	4231.091309	1734.628784
694.766846	-44.687473	4247.595703	1582.003052
695.178101	-27.304979	4249.953125	1708.000488
695.589294	-17.374418	4518.385742	1737.048828
696.000366	-29.787918	4443.101563	1676.519653
696.411438	-4.963674	4840.129883	1903.876465
696.822510	-34.753971	4802.600586	1737.048828
697.233459	-37.237225	4718.114746	1843.470947
697.644409	-4.963674	4819.020996	1778.182861
698.055298	-54.622669	4905.775391	1749.149414
698.466064	-52.138680	4743.936523	1790.277222
698.876831	-32.270958	4835.438965	1804.787842
699.287537	9.925827	4727.505371	1758.828247
699.698181	-7.445533	4617.119141	1623.216309
700.108826	-136.652664	4664.104980	1778.182861
700.519348	-67.043938	4360.701172	1708.000488
700.929810	-44.687473	4497.217285	1625.640015
701.340271	121.478790	4603.019531	1785.439819
701.750732	143.764648	4558.359375	1669.253418
702.161011	27.292219	4499.569336	1741.889282
702.571350	-67.043938	4428.979980	1695.894043
702.981567	47.133343	4758.019043	1778.182861
703.391724	-14.892141	4556.008789	1715.263672
703.801880	7.444594	4617.119141	1654.718018
704.211914	-121.729477	4516.033691	1640.180298
704.621948	-24.822149	4539.550293	1598.975830
705.031921	-136.652664	4673.500000	1695.894043
705.441895	-19.856936	4715.767090	1659.563477
705.851746	-96.866043	4734.547363	1722.526001
706.261536	86.795677	4901.088379	1758.828247
706.671265	-72.013290	4605.370117	1824.131592
707.081055	-72.013290	4696.983398	1778.182861
707.490662	-2.481785	4802.600586	1666.830933
707.900330	-2.481785	4854.199707	1693.472412
708.309814	-62.075138	4520.737305	1649.872559
708.719299	19.850122	4929.211914	1666.830933
709.128784	128.908401	4983.097168	1756.408569
709.538147	0.000000	4603.019531	1691.050903
709.947510	9.925827	4783.831055	1770.925415
710.356750	-29.787918	4480.749512	1666.830933
710.766052	-34.753971	4760.365234	1688.629150
711.175171	32.253189	4577.166016	1681.363770
711.584290	62.009785	4743.936523	1567.452026
711.993347	-49.654930	4565.412598	1632.910645
712.402405	24.811714	4889.367676	1611.096924
712.811401	-47.171146	4617.119141	1586.852661
713.220276	-64.559555	4591.268555	1717.684570
713.629150	-52.138680	4570.113770	1734.628784
714.037964	-32.270958	4468.985840	1700.736938
714.446777	12.407091	4532.496094	1582.003052
714.855408	44.653534	4330.080078	1594.126831
715.264099	-4.963674	4315.943848	1443.659058
715.672668	-22.339558	4379.541016	1591.702026
716.081177	24.811714	4186.281738	1475.232666
716.489746	-47.171146	3803.464600	1472.804321
716.898132	-89.409119	3668.441162	1375.610107
717.306519	14.888249	3400.244385	1190.597656
717.714844	-84.438271	3221.846436	1217.404297
718.123108	9.925827	3086.050049	1193.035034
718.531372	-47.171146	2952.453125	1210.094238
718.939514	9.925827	2806.716309	1146.711792
719.347595	-57.106766	2596.075439	1051.535034
719.755676	-19.856936	2682.303955	931.775391
720.163696	-4.963674	2691.880127	1061.302368
720.571716	2.481545	2639.199951	1031.996094
720.979614	-29.787918	2816.279053	1144.272827
721.387451	17.369307	2988.255859	1146.711792
721.795227	14.888249	3378.853027	1234.457886
722.202942	-49.654930	3207.560791	1132.077271
722.610718	-57.106766	3359.835205	1212.531006
723.018311	-27.304979	3055.052734	1207.657471
723.425903	-49.654930	3064.591553	1190.597656
723.833374	-59.590828	2916.636230	1063.744019
724.240906	-99.351952	2844.963379	1136.955566
724.648376	-59.590828	2876.028320	1166.219849
725.055725	22.330971	2780.411865	1068.626953
725.463013	54.572029	2952.453125	1097.918701
725.870300	-52.138680	2861.691650	1071.068481
726.277466	37.213612	3024.045410	1061.302368
726.684631	-19.856936	2746.923096	931.775391
727.091797	34.733521	2876.028320	1022.224426
727.498779	76.882660	2749.315186	1041.765991
727.905823	37.213612	2854.522949	1112.559937
728.312805	47.133343	2993.028564	1005.121216
728.719666	161.092377	2962.001465	1136.955566
729.126526	-2.481785	3004.959473	1149.150635
729.533264	-72.013290	2751.708008	1000.234009
729.940063	57.051430	2868.860596	1056.418701
730.346680	29.772757	2854.522949	1090.596802
730.753357	-7.445533	2911.859619	1058.860596
731.159851	7.444594	2828.231934	988.013916
731.566406	-44.687473	2828.231934	1107.679810
731.972900	-54.622669	3109.887695	1100.359131
732.379272	-57.106766	3035.972900	1190.597656
732.785645	-19.856936	3145.632813	1088.156006
733.191895	-114.269333	3278.968018	1141.833862
733.598206	4.963121	3507.132080	1173.533936
734.004333	-76.982933	3597.306396	1197.909668
734.410522	84.317642	3841.334229	1214.967651
734.816528	-67.043938	3573.583984	1285.595337
735.222656	-27.304979	3535.616699	1236.893555
735.628662	-32.270958	3599.678467	1256.378052
736.034546	-9.927631	3630.508789	1309.934082
736.440430	-131.677887	3654.218506	1361.020386
736.846252	-44.687473	3519.001709	1270.987915
737.252014	-39.720581	3770.317139	1263.683472
737.657715	-32.270958	3850.799561	1404.781250
738.063354	57.051430	3917.034180	1499.511597
738.468933	-22.339558	3793.994873	1324.533691
738.874512	-42.203907	3803.464600	1229.585693
739.280029	-54.622669	3770.317139	1363.452271
739.685486	7.444594	3876.825439	1249.072021
740.090881	54.572029	4108.410645	1343.995483
740.496216	-37.237225	3985.590332	1407.211670
740.901550	49.613056	4143.813477	1446.088257
741.306702	14.888249	4025.758789	1409.642090
741.711914	99.184853	3914.669434	1322.100586
742.117004	14.888249	4089.524170	1438.800293
742.522095	-2.481785	3950.135742	1365.883911
742.927124	-47.171146	3973.773438	1358.588379
743.332031	0.000000	3992.680176	1431.511963
743.737000	-81.953140	3964.319336	1392.627930
744.141785	69.446754	3995.043213	1353.724365
744.546631	-27.304979	4018.670898	1514.075195
744.951355	-9.927631	3973.773438	1268.553345
745.356079	44.653534	4051.741455	1387.765991
745.760620	-99.351952	3793.994873	1146.711792
746.165283	32.253189	3964.319336	1431.511963
746.569824	-9.927631	3782.156494	1234.457886
746.974243	-44.687473	3895.748779	1322.100586
747.378723	-34.753971	3850.799561	1253.942627
747.783020	-39.720581	3767.948730	1331.832520
748.187378	-29.787918	3611.537354	1229.585693
748.591614	19.850122	3599.678467	1222.276855
748.995850	7.444594	3846.066895	1185.722900
749.399963	9.925827	3682.662598	1227.149536
749.804077	-151.579865	3504.758301	1212.531006
750.208130	-2.481785	3687.402588	1232.021851
750.612122	-96.866043	3559.348389	1171.095947
751.016052	-72.013290	3495.261230	1175.971924
751.419922	-17.374418	3666.071045	1171.095947
751.823792	57.051430	3587.818359	1166.219849
752.227478	-42.203907	3504.758301	1183.285278
752.631226	84.317642	3753.739502	1229.585693
753.034851	-24.822149	3462.015381	1171.095947
753.438477	-39.720581	3459.640381	1202.783569
753.842102	-22.339558	3575.956787	1268.553345
754.245544	131.384613	3523.749023	1139.394775
754.648987	-44.687473	3319.409424	1073.509766
755.052368	-32.270958	3426.382813	1110.119873
755.455750	-17.374418	3350.324707	1158.904907
755.859009	-27.304979	3198.036377	1146.711792
756.262268	-9.927631	3183.747070	1097.918701
756.665405	42.173752	3228.988525	1049.092896
757.068542	49.613056	3171.837891	1105.239624
757.471680	32.253189	3257.551270	1134.516602
757.874634	-29.787918	3095.585693	983.125549
758.277588	-44.687473	3174.219727	963.567932
758.680420	-44.687473	2813.888672	1056.418701
759.083374	-9.927631	2538.544922	821.612732
759.486084	-84.438271	2002.211670	703.912415
759.888916	14.888249	1671.036865	613.045532
760.291504	-47.171146	1065.541870	509.748322
760.694214	-32.270958	909.111450	416.147980
761.096802	-76.982933	730.256592	381.629272
761.499268	-19.856936	752.332458	396.425385
761.901733	-81.953140	597.650635	352.026978
762.304199	-39.720581	560.768738	260.665436
762.706543	-49.654930	427.821899	292.780609
763.108826	-64.559555	358.778442	408.752716
763.511108	54.572029	368.646240	255.723083
763.913208	4.963121	343.973541	310.066559
764.315369	-64.559555	341.505829	250.780487
764.717529	-39.720581	435.214996	282.900757
765.119568	116.525337	671.352783	391.493683
765.521545	12.407091	757.236938	627.789063
765.923462	2.481545	1136.312744	904.862610
766.325317	7.444594	1248.429810	1146.711792
766.727112	-34.753971	1537.702271	1506.793579
767.128845	9.925827	2026.333374	1309.934082
767.530518	-14.892141	1987.735229	1102.799316
767.932251	-19.856936	2197.402832	1132.077271
768.333862	-101.837822	2038.391846	1066.185669
768.735413	4.963121	2233.501221	1190.597656
769.136841	74.404083	2579.299561	1302.633301
769.538269	119.002182	2830.622559	1518.929199
769.939636	-62.075138	2909.471680	1654.718018
770.341003	37.213612	2816.279053	1613.520996
770.742249	-9.927631	2842.573730	1414.502686
771.143433	-34.753971	2746.923096	1249.072021
771.544617	-12.409834	2572.108887	1124.758789
771.945740	52.092663	2778.019775	1193.035034
772.346802	7.444594	2572.108887	1166.219849
772.747803	12.407091	2634.409180	988.013916
773.148682	-24.822149	2615.244629	980.681091
773.549622	29.772757	2612.848389	858.352966
773.950439	52.092663	2861.691650	863.250244
774.351196	-7.445533	2480.978271	895.073730
774.751892	66.967865	2833.012695	968.457642
775.152588	32.253189	2540.942627	851.006348
775.553162	89.273743	2766.060791	904.862610
775.953735	66.967865	2746.923096	797.108643
776.354309	39.693733	2665.543945	809.361755
776.754639	-12.409834	2509.766113	873.043518
777.155090	49.613056	2538.544922	882.835754
777.555420	-129.190582	2452.181396	789.755554
777.955750	19.850122	2555.328613	843.659302
778.355896	9.925827	2336.900391	821.612732
778.756104	0.000000	2584.093018	792.206665
779.156189	-37.237225	2348.915771	855.904175
779.556274	-39.720581	2459.381348	826.512634
779.956299	2.481545	2476.179443	711.274719
780.356201	-22.339558	2353.721436	826.512634
780.756165	59.530727	2483.377441	757.883606
781.156006	99.184853	2336.900391	775.047302
781.555786	-69.528564	2418.572998	775.047302
781.955505	-29.787918	2197.402832	821.612732
782.355225	59.530727	2406.566650	931.775391
782.754761	74.404083	2454.581055	802.010010
783.154358	-27.304979	2320.076172	885.283264
783.553894	-76.982933	2286.418213	789.755554
783.953369	-111.782791	2276.799072	711.274719
784.352783	-14.892141	2271.989258	806.911255
784.752075	-49.654930	2464.181152	824.062744
785.151367	-74.498131	2271.989258	757.883606
785.550598	123.955429	2231.094971	792.206665
785.949768	66.967865	2368.136963	772.595520
786.348877	-9.927631	2127.570557	745.621216
786.747986	54.572029	2132.388184	755.431213
787.147034	-17.374418	2214.250488	777.498962
787.545959	-44.687473	2011.861084	799.559204
787.944885	19.850122	2110.705811	718.636047
788.343750	57.051430	2151.656982	853.455322
788.742493	7.444594	2019.097534	738.262634
789.141235	19.850122	1905.655273	684.275818
789.539917	-2.481785	1980.495972	667.089233
789.938538	-32.270958	1903.239868	730.903503
790.337158	4.963121	1968.429565	716.182251
790.735718	42.173752	2170.921387	681.820862
791.134094	-37.237225	1772.706909	681.820862
791.532532	49.613056	1963.602295	794.657715
791.930847	62.009785	2026.333374	782.401917
792.329224	81.839378	2134.797363	696.549500
792.727417	-24.822149	1867.001465	728.450195
793.125610	-7.445533	1859.751709	568.795044
793.523682	27.292219	1912.900757	762.788025
793.921753	-9.927631	2016.685547	703.912415
794.319824	19.850122	1886.330566	689.185608
794.717773	-32.270958	1903.239868	642.529358
795.115723	-27.304979	1987.735229	775.047302
795.513550	0.000000	2004.624146	814.262512
795.911377	-39.720581	1917.730957	652.354309
796.309082	156.142014	2158.881592	735.809570
796.706787	-24.822149	1821.076538	625.332031
797.104370	-14.892141	1837.999268	745.621216
797.501953	59.530727	1987.735229	752.978821
797.899536	-19.856936	1859.751709	676.910828
798.296936	-57.106766	1787.220825	708.820740
798.694397	0.000000	1789.639648	730.903503
799.091736	-47.171146	1806.568848	689.185608
799.489014	49.613056	1816.240845	627.789063
799.886230	81.839378	1963.602295	711.274719
800.283447	-37.237225	1886.330566	657.266418
800.680542	76.882660	1833.164551	669.544739
801.077637	-44.687473	1748.511230	676.910828
801.474670	27.292219	1782.383179	735.809570
801.871643	34.733521	1654.079468	740.715576
802.268555	12.407091	1784.802002	718.636047
802.665405	24.811714	1661.347168	681.820862
803.062256	141.288818	1830.747070	593.382324
803.458923	64.488876	1717.046265	728.450195
803.855652	4.963121	1508.580811	593.382324
804.252258	141.288818	2026.333374	760.335876
804.648804	32.253189	1763.029419	669.544739
805.045410	7.444594	1593.487427	620.417603
805.441833	47.133343	1951.533447	743.168457
805.838257	-69.528564	1738.831177	806.911255
806.234619	101.662407	1915.315918	794.657715
806.630859	29.772757	1598.336548	706.366638
807.027100	-99.351952	1547.406738	738.262634
807.423279	-44.687473	1641.964600	654.810425
807.819458	49.613056	1825.911865	782.401917
808.215515	-2.481785	1695.255493	718.636047
808.611572	156.142014	1903.239868	794.657715
809.007507	-2.481785	1600.760986	664.633545
809.403381	54.572029	1559.535767	617.960266
809.799194	-44.687473	1566.812500	699.003723
810.195068	2.481545	1656.502197	821.612732
810.590759	44.653534	1571.663208	637.616211
810.986450	-57.106766	1610.457886	642.529358
811.382080	37.213612	1673.459106	721.089661
811.777649	54.572029	1518.289307	706.366638
812.173157	79.361000	1787.220825	694.094971
812.568665	-49.654930	1316.592773	723.543274
812.964050	29.772757	1549.832642	841.209961
813.359375	-44.687473	1428.441528	681.820862
813.754639	-101.837822	1360.379028	743.168457
814.149841	7.444594	1421.152222	804.460693
814.545105	4.963121	1323.892090	787.304321
814.940186	29.772757	1301.991577	899.968445
815.335266	123.955429	1426.011719	1073.509766
815.730347	111.571480	1712.204346	1312.367554
816.125244	54.572029	1542.554443	1436.371094
816.520203	39.693733	2125.161377	1857.972290
816.914978	69.446754	2329.690430	2380.781494
817.309753	178.415176	3052.668213	3315.280273
817.704468	217.991714	4084.801758	4486.075195
818.099182	329.165466	5289.532715	6030.744141
818.493774	232.826340	5992.977539	6755.347168
818.888367	351.376495	7201.770508	7608.882324
819.282898	346.441406	7803.042480	7817.383789
819.677307	425.357452	8296.687500	8438.646484
820.071716	339.038025	7709.133301	8210.577148
820.466003	304.477295	7445.369141	7863.163574
820.860291	267.426727	6870.103027	6863.793457
821.254517	245.185898	6132.249512	6070.208984
821.648743	163.567261	5245.136719	5308.835938
822.042786	84.317642	4556.008789	4333.057617
822.436890	59.530727	3692.141846	3491.138672
822.830872	138.812881	3338.435547	3036.601807
823.224792	133.860855	2648.780518	2301.478271
823.618774	94.229568	2339.303223	2128.205566
824.012512	57.051430	2060.092285	1572.302490
824.406311	54.572029	1927.390015	1528.635986
824.799988	-54.622669	1721.887939	1134.516602
825.193665	81.839378	1741.251099	1158.904907
825.587280	76.882660	1595.912109	951.341492
825.980835	12.407091	1588.638306	946.450623
826.374329	-49.654930	1433.300903	797.108643
826.767761	32.253189	1462.450073	779.950439
827.161194	44.653534	1469.735962	745.621216
827.554443	27.292219	1263.041382	676.910828
827.947754	-32.270958	1228.943359	632.702698
828.340942	39.693733	1292.255859	578.631042
828.734131	66.967865	1233.815552	576.172119
829.127136	-39.720581	1053.333130	502.363739
829.520264	7.444594	1107.036377	445.720703
829.913208	52.092663	1265.476318	416.147980
830.306152	29.772757	1094.834595	379.163025
830.699097	2.481545	1124.115601	470.354218
831.091797	-49.654930	1153.385010	428.471619
831.484619	-81.953140	987.369690	423.542542
831.877319	94.229568	1336.056519	475.279724
832.270020	69.446754	1150.946289	487.592102
832.662537	0.000000	1197.266968	347.091949
833.055054	-24.822149	926.237793	379.163025
833.447510	42.173752	1336.056519	492.516296
833.839966	44.653534	962.923157	450.648102
834.232361	-49.654930	997.145813	337.220642
834.624634	42.173752	1019.137390	300.189453
835.016907	-7.445533	1228.943359	470.354218
835.409058	-44.687473	977.591980	258.194336
835.801208	-44.687473	1153.385010	376.696564
836.193298	-64.559555	911.558350	389.027832
836.585327	-22.339558	1177.766968	324.879272
836.977295	-34.753971	1019.137390	371.763458
837.369202	-32.270958	1060.658569	329.816162
837.761047	-44.687473	1038.679810	342.156433
838.152832	-4.963674	1153.385010	376.696564
838.544617	49.613056	1150.946289	327.347778
838.936218	-32.270958	1036.237305	352.026978
839.327942	-52.138680	1019.137390	393.959564
839.719421	39.693733	1063.100220	273.019348
840.111023	62.009785	1128.994629	344.624237
840.502380	32.253189	1182.642578	277.960297
840.893860	-44.687473	845.462646	268.078094
841.285217	29.772757	1160.700317	337.220642
841.676453	89.273743	1211.888428	443.256775
842.067749	9.925827	1028.909180	317.473358
842.458862	14.888249	1099.715698	290.310760
842.849976	7.444594	1163.138672	315.004486
843.241028	89.273743	1004.477112	201.332153
843.632019	-24.822149	1170.453369	315.004486
844.022949	-72.013290	1072.866089	307.597412
844.413879	-79.467987	994.701782	198.858658
844.804749	-32.270958	975.147339	334.752533
845.195496	-99.351952	1014.250916	250.780487
845.586182	4.963121	1063.100220	238.422043
845.976807	-89.409119	918.898621	300.189453
846.367432	-17.374418	1014.250916	297.719879
846.757996	-59.590828	977.591980	332.284332
847.148499	79.361000	1048.448975	332.284332
847.538879	22.330971	1153.385010	270.548828
847.929260	4.963121	1048.448975	292.780609
848.319641	22.330971	1248.429810	356.961609
848.709839	-7.445533	1060.658569	297.719879
849.100098	-52.138680	911.558350	258.194336
849.490234	-44.687473	948.251404	258.194336
849.880310	64.488876	958.032837	282.900757
850.270325	19.850122	1014.250916	263.136322
850.660339	-54.622669	1036.237305	233.478058
851.050171	74.404083	994.701782	344.624237
851.440125	12.407091	918.898621	265.607269
851.829895	-37.237225	899.323181	285.370880
852.219604	0.000000	838.114746	223.588760
852.609314	-2.481785	962.923157	305.128143
852.998901	37.213612	896.875854	369.296692
853.388550	14.888249	796.462402	315.004486
853.778015	-67.043938	911.558350	223.588760
854.167480	-89.409119	811.166138	287.840942
854.556885	54.572029	914.005188	218.643600
854.946228	14.888249	796.462402	161.744720
855.335571	-22.339558	872.398010	263.136322
855.724731	-86.923637	744.974487	156.794556
856.113953	-64.559555	825.866699	243.365768
856.503052	-86.923637	843.013428	273.019348
856.892151	-27.304979	794.011414	253.251907
857.281067	-4.963674	889.533325	292.780609
857.670105	-74.498131	759.689209	179.067337
858.058960	89.273743	972.702637	297.719879
858.447754	29.772757	938.468262	352.026978
858.836609	94.229568	1128.994629	315.004486
859.225281	37.213612	1055.775146	248.308975
859.613892	14.888249	994.701782	208.751923
860.002502	37.213612	801.364075	181.541641
860.391052	52.092663	695.902344	184.015839
860.779541	-19.856936	877.294250	176.593079
861.167969	71.925400	982.481018	255.723083
861.556335	19.850122	1036.237305	258.194336
861.944702	0.000000	717.989319	275.489868
862.332947	7.444594	840.564148	231.005859
862.721069	69.446754	904.217651	310.066559
863.109253	-34.753971	769.497498	292.780609
863.497314	114.048393	1043.564453	233.478058
863.885376	-57.106766	852.809814	208.751923
864.273315	-22.339558	884.638123	231.005859
864.661255	-7.445533	688.538269	265.607269
865.049072	-57.106766	767.045532	302.658905
865.436890	-2.481785	735.163025	282.900757
865.824707	19.850122	896.875854	245.837357
866.212280	74.404083	857.707275	213.697891
866.599915	-42.203907	811.166138	179.067337
866.987488	-9.927631	791.560425	203.805420
867.375061	-4.963674	717.989319	134.513626
867.762451	17.369307	771.949097	226.061279
868.149841	24.811714	717.989319	169.169296
868.537170	14.888249	784.206970	290.310760
868.924438	17.369307	767.045532	164.219727
869.311707	-42.203907	722.896301	174.118591
869.698853	-12.409834	771.949097	223.588760
870.085938	44.653534	757.236938	223.588760
870.472961	0.000000	690.993103	188.963791
870.859985	-4.963674	686.083435	300.189453
871.246887	79.361000	877.294250	213.697891
871.633789	-42.203907	749.879883	129.561111
872.020569	14.888249	762.141479	196.385071
872.407349	123.955429	1109.476563	307.597412
872.794067	19.850122	874.846191	273.019348
873.180725	91.751709	850.360901	240.893967
873.567322	22.330971	806.265137	268.078094
873.953796	-24.822149	757.236938	315.004486
874.340332	76.882660	813.616455	233.478058
874.726624	54.572029	850.360901	235.950165
875.113037	-2.481785	632.055176	171.643982
875.499329	-76.982933	575.523865	198.858658
875.885559	-79.467987	661.530579	255.723083
876.271729	-76.982933	548.470276	193.911499
876.657898	12.407091	673.808167	233.478058
877.044006	-29.787918	609.939880	159.269760
877.429932	19.850122	717.989319	253.251907
877.815918	-9.927631	668.897278	201.332153
878.201782	143.764648	742.521729	176.593079
878.587585	131.384613	904.217651	265.607269
878.973389	-62.075138	698.356812	109.747238
879.359070	34.733521	813.616455	206.278732
879.744751	-17.374418	607.482178	139.465607
880.130310	-49.654930	646.794495	119.654991
880.515930	-14.892141	496.791260	198.858658
880.901367	-7.445533	570.605774	270.548828
881.286804	79.361000	656.618835	203.805420
881.672180	-17.374418	762.141479	188.963791
882.057434	-89.409119	585.358765	124.608315
882.442749	-22.339558	528.787842	208.751923
882.827942	-34.753971	690.993103	112.224365
883.213013	-59.590828	624.684082	77.535919
883.598145	12.407091	742.521729	208.751923
883.983154	17.369307	634.511963	119.654991
884.368042	-42.203907	553.389771	99.838013
884.753052	-22.339558	459.852509	132.037415
885.137817	-72.013290	509.099396	124.608315
885.522644	-32.270958	713.081665	112.224365
885.907349	-52.138680	479.555817	102.315399
886.292053	-81.953140	533.708740	174.118591
886.676636	14.888249	499.253113	132.037415
887.061157	-27.304979	499.253113	233.478058
887.445740	-42.203907	445.071014	169.169296
887.830078	14.888249	528.787842	223.588760
888.214539	47.133343	708.173645	203.805420
888.598816	76.882660	722.896301	245.837357
888.983093	-12.409834	612.397522	132.037415
889.367249	34.733521	474.630493	206.278732
889.751465	-64.559555	543.550171	159.269760
890.135498	2.481545	550.929932	102.315399
890.519531	64.488876	639.425110	169.169296
890.903503	-2.481785	548.470276	184.015839
891.287415	79.361000	698.356812	191.437698
891.671326	42.173752	619.769653	136.989594
892.055054	39.693733	499.253113	52.746193
892.438843	74.404083	464.778961	117.178299
892.822510	-67.043938	417.963135	136.989594
893.206116	-72.013290	430.286285	112.224365
893.589661	37.213612	464.778961	75.057503
893.973206	2.481545	376.046326	25.465548
894.356628	-2.481785	400.706604	144.417191
894.739990	-29.787918	435.214996	84.970825
895.123352	79.361000	504.176300	84.970825
895.506592	54.572029	326.696899	72.578850
895.889832	24.811714	188.311600	94.882645
896.272949	-17.374418	309.415527	80.014374
896.656067	14.888249	277.308899	57.705044
897.039063	74.404083	454.925659	67.621239
897.422058	-14.892141	247.657410	50.266617
897.804993	19.850122	260.013885	-41.549332
898.187866	4.963121	257.542847	82.492722
898.570618	-42.203907	282.249542	0.654107
898.953369	-64.559555	264.955872	-78.812859
899.336121	-37.237225	240.242310	84.970825
899.718689	34.733521	292.129486	-19.202473
900.101257	-76.982933	116.525200	-6.791343
900.483704	-34.753971	366.179504	35.387245
900.866211	-91.894699	205.626709	18.023220
901.248596	-44.687473	141.288681	52.746193
901.630920	-2.481785	277.308899	55.225670
902.013184	-49.654930	123.955292	-4.309377
902.395386	-14.892141	383.445374	32.906940
902.777588	-2.481785	195.732941	20.504145
903.159668	22.330971	292.129486	57.705044
903.541687	-59.590828	252.600266	47.787067
903.923645	-49.654930	279.779266	10.579959
904.305603	-76.982933	193.259216	55.225670
904.687500	-24.822149	225.409332	87.448967
905.069275	-57.106766	136.336853	32.906940
905.451050	4.963121	245.185760	117.178299
905.832642	4.963121	245.185760	55.225670
906.214294	-12.409834	343.973541	15.542327
906.595825	-4.963674	314.353607	15.542327
906.977417	-4.963674	230.354095	87.448967
907.358826	9.925827	272.368011	25.465548
907.740234	-64.559555	242.714020	-1.827515
908.121582	4.963121	297.068848	3.135760
908.502869	4.963121	299.538422	-6.791343
908.884033	34.733521	304.477142	42.827393
909.265198	9.925827	109.094193	-58.936058
909.646301	54.572029	339.037903	55.225670
910.027344	-32.270958	205.626709	32.906940
910.408325	27.292219	272.368011	97.360374
910.789246	-59.590828	203.153381	45.307281
911.170105	14.888249	331.633636	37.867439
911.550903	49.613056	183.363449	55.225670
911.931641	44.653534	161.092239	-11.755454
912.312317	57.051430	213.045959	-4.309377
912.692932	-39.720581	264.955872	67.621239
913.073547	0.000000	260.013885	77.535919
913.453979	-106.810158	183.363449	-4.309377
913.834473	7.444594	267.426605	32.906940
914.214783	4.963121	260.013885	40.347538
914.595154	54.572029	272.368011	67.621239
914.975464	-9.927631	237.770386	57.705044
915.355652	-74.498131	237.770386	97.360374
915.735840	-9.927631	351.376495	37.867439
916.115845	52.092663	415.498138	97.360374
916.495972	-76.982933	193.259216	-11.755454
916.875854	17.369307	193.259216	119.654991
917.255859	39.693733	334.101868	30.426670
917.635620	-14.892141	190.785385	67.621239
918.015503	94.229568	403.171997	124.608315
918.395203	91.751709	388.377563	102.315399
918.774902	-2.481785	183.363449	107.270157
919.154480	-47.171146	84.317505	62.663345
919.534058	161.092377	605.024353	132.037415
919.913574	4.963121	250.128815	37.867439
920.292969	-49.654930	326.696899	30.426670
920.672363	0.000000	329.165314	52.746193
921.051636	24.811714	282.249542	-1.827515
921.430969	2.481545	319.291199	57.705044
921.810181	-12.409834	440.143219	60.184177
922.189331	39.693733	173.466095	30.426670
922.568420	-89.409119	193.259216	82.492722
922.947388	121.478790	351.376495	10.579959
923.326416	-22.339558	121.478790	22.984966
923.705261	-57.106766	222.936951	70.100098
924.084106	114.048393	602.566467	119.654991
924.462891	-17.374418	183.363449	80.014374
924.841675	96.707191	282.249542	136.989594
925.220337	-14.892141	205.626709	32.906940
925.598938	-49.654930	123.955292	92.404945
925.977478	138.812881	614.855103	122.131706
926.355957	-12.409834	188.311600	20.504145
926.734436	-79.467987	180.889374	52.746193
927.112732	121.478790	491.867249	124.608315
927.491089	-42.203907	180.889374	-24.167767
927.869324	-52.138680	185.837585	-14.237735
928.247559	57.051430	203.153381	-56.451885
928.625671	-29.787918	96.707062	-4.309377
929.003723	-2.481785	245.185760	45.307281
929.381775	57.051430	116.525200	8.098619
929.759705	-57.106766	17.369171	-19.202473
930.137634	-121.729477	-109.296486	-44.032738
930.515381	-32.270958	96.707062	62.663345
930.893250	138.812881	393.309509	141.941513
931.270935	69.446754	163.567261	87.448967
931.648560	-69.528564	-47.171284	5.617309
932.026123	-47.171146	-47.171284	-16.720118
932.403687	-76.982933	57.051296	10.579959
932.781250	-47.171146	9.925827	-46.516384
933.158630	69.446754	442.607208	104.792831
933.536011	-47.171146	-7.445668	20.504145
933.913208	-27.304979	-104.324074	-6.791343
934.290527	-22.339558	-91.894699	-24.167767
934.667664	128.908401	319.291199	42.827393
935.044800	-17.374418	-37.237358	20.504145
935.421814	-79.467987	66.967735	0.654107
935.798889	-4.963674	47.133209	-16.720118
936.175842	-27.304979	-64.559685	-88.753876
936.552673	-84.438271	153.666687	-63.904591
936.929504	-34.753971	-34.754105	-98.696594
937.306274	-27.304979	-32.270958	-11.755454
937.683044	27.292219	96.707062	-31.616358
938.059570	-22.339558	-32.270958	-11.755454
938.436218	69.446754	358.778442	45.307281
938.812744	-89.409119	-81.953278	-41.549332
939.189148	-34.753971	9.925827	-29.133345
939.565613	-79.467987	12.406956	-14.237735
939.941956	-74.498131	-81.953278	-76.327972
940.318237	17.369307	180.889374	75.057503
940.694458	14.888249	19.850122	32.906940
941.070557	-32.270958	-69.528694	-96.210716
941.446655	39.693733	111.571342	-36.582565
941.822693	-12.409834	94.229431	-26.650570
942.198669	-42.203907	-22.339691	10.579959
942.574646	-57.106766	34.733383	3.135760
942.950562	-22.339558	76.882530	-16.720118
943.326294	-27.304979	52.092525	-71.358246
943.702026	-27.304979	79.361000	-1.827515
944.077698	-64.559555	-7.445668	-56.451885
944.453369	-49.654930	-4.963809	25.465548
944.828918	-4.963674	39.693600	-21.685068
945.204468	-9.927631	27.292219	-26.650570
945.579834	4.963121	96.707062	-21.685068
945.955261	44.653534	-19.857071	-11.755454
946.330627	9.925827	-22.339691	-148.435776
946.705811	-22.339558	-89.409248	-1.827515
947.081055	29.772757	-22.339691	-96.210716
947.456177	126.431976	66.967735	35.387245
947.831238	-47.171146	-96.866180	-34.099476
948.206238	-57.106766	89.273613	45.307281
948.581238	7.444594	-106.810295	-19.202473
948.956116	14.888249	29.772621	20.504145
949.330933	4.963121	-79.468124	-101.182579
949.705811	-52.138680	7.444459	-41.549332
950.080505	-7.445533	-17.374554	-9.273415
950.455139	4.963121	-19.857071	45.307281
950.829773	-62.075138	-52.138813	-36.582565
951.204346	245.185898	627.141174	104.792831
951.578735	121.478790	304.477142	82.492722
951.953186	-14.892141	57.051296	-24.167767
952.327515	12.407091	-49.654930	-78.812859
952.701843	2.481545	-89.409248	-78.812859
953.076172	-12.409834	-59.590965	-83.783218
953.450195	-84.438271	-74.498131	-78.812859
953.824341	24.811714	62.009785	-83.783218
954.198486	-52.138680	4.962986	-49.000134
954.572449	81.839378	272.368011	-16.720118
954.946350	2.481545	14.888115	-26.650570
955.320251	37.213612	193.259216	-41.549332
955.694092	-19.856936	-12.409968	-53.967815
956.067871	4.963121	89.273613	-36.582565
956.441589	86.795677	141.288681	-21.685068
956.815125	-44.687473	29.772621	-63.904591
957.188721	7.444594	27.292219	-29.133345
957.562256	-72.013290	17.369171	-9.273415
957.935730	19.850122	24.811581	-53.967815
958.309021	-32.270958	-42.204041	-44.032738
958.682373	-79.467987	-57.106766	35.387245
959.055664	-34.753971	-59.590965	-61.420204
959.428955	-17.374418	22.330835	35.387245
959.802063	-59.590828	-124.216591	-58.936058
960.175110	-49.654930	-64.559685	-36.582565
960.548157	-104.323944	-29.788054	-19.202473
960.921143	17.369307	32.253056	-19.202473
961.294128	-7.445533	-37.237358	-56.451885
961.666809	-9.927631	4.962986	-1.827515
962.039612	-57.106766	86.795677	-16.720118
962.412415	-7.445533	24.811581	-36.582565
962.785095	-14.892141	-69.528694	55.225670
963.157715	-47.171146	52.092525	-34.099476
963.530151	-64.559555	-19.857071	-49.000134
963.902649	-14.892141	81.839241	-36.582565
964.275146	-22.339558	74.403946	3.135760
964.647522	104.139732	19.850122	-6.791343
965.019714	-72.013290	-59.590965	-51.483990
965.392029	24.811714	52.092525	-4.309377
965.764160	-44.687473	37.213474	-21.685068
966.136292	-149.091690	14.888115	-39.065895
966.508423	-49.654930	-76.983070	-71.358246
966.880371	-32.270958	-0.000135	15.542327
967.252319	91.751709	175.940613	55.225670
967.624207	-57.106766	-7.445668	15.542327
967.996094	-14.892141	64.488747	75.057503
968.367737	47.133343	168.516876	77.535919
968.739441	-57.106766	74.403946	5.617309
969.111084	-114.269333	27.292219	40.347538
969.482666	-32.270958	-19.857071	32.906940
969.854248	-44.687473	-29.788054	-96.210716
970.225586	9.925827	111.571342	27.946159
970.596985	-34.753971	101.662277	0.654107
970.968323	54.572029	66.967735	-39.065895
971.339661	19.850122	180.889374	15.542327
971.710754	-22.339558	185.837585	22.984966
972.081909	-7.445533	183.363449	-31.616358
972.453064	-42.203907	99.184723	-21.685068
972.824097	136.336990	499.253113	55.225670
973.194946	-44.687473	-57.106766	-16.720118
973.565918	17.369307	27.292219	0.654107
973.936768	-37.237225	69.446617	-31.616358
974.307556	14.888249	-111.782928	-39.065895
974.678284	-99.351952	34.733383	-53.967815
975.048828	22.330971	86.795677	45.307281
975.419495	49.613056	109.094193	-31.616358
975.790039	2.481545	96.707062	-24.167767
976.160522	49.613056	62.009785	27.946159
976.530884	-57.106766	-0.000135	-44.032738
976.901245	-2.481785	-7.445668	27.946159
977.271606	-44.687473	44.653534	-11.755454
977.641846	24.811714	262.484924	18.023220
978.012024	-37.237225	14.888115	15.542327
978.382019	-34.753971	22.330835	-21.685068
978.752136	153.666824	311.884613	30.426670
979.122131	24.811714	242.714020	-14.237735
979.492065	-72.013290	62.009785	-56.451885
979.861877	-27.304979	-59.590965	-36.582565
980.231689	-91.894699	-52.138813	-53.967815
980.601440	-49.654930	-64.559685	-31.616358
980.971191	-12.409834	62.009785	-58.936058
981.340820	-19.856936	4.962986	-44.032738
981.710266	-17.374418	-0.000135	-6.791343
982.079773	-17.374418	170.991608	-46.516384
982.449280	-74.498131	57.051296	-116.100433
982.818604	66.967865	208.099792	-51.483990
983.187866	-17.374418	91.751572	45.307281
983.557129	-37.237225	-54.622803	-61.420204
983.926331	4.963121	27.292219	-73.843056
984.295471	-34.753971	12.406956	0.654107
984.664612	-39.720581	19.850122	-44.032738
985.033569	-4.963674	12.406956	-1.827515
985.402527	-49.654930	59.530590	18.023220
985.771362	39.693733	141.288681	18.023220
986.140259	76.882660	195.732941	10.579959
986.508911	29.772757	148.715729	8.098619
986.877625	81.839378	279.779266	72.578850
987.246277	0.000000	114.048256	-24.167767
987.614929	-27.304979	44.653534	-39.065895
987.983459	-24.822149	136.336853	0.654107
988.351807	19.850122	227.881760	99.838013
988.720215	-106.810158	49.612923	-6.791343
989.088623	22.330971	27.292219	3.135760
989.456909	54.572029	128.908264	3.135760
989.825012	14.888249	-2.481920	-16.720118
990.193115	-2.481785	-24.822283	-21.685068
990.561279	29.772757	109.094193	18.023220
990.929321	-22.339558	47.133209	-46.516384
991.297302	-17.374418	109.094193	18.023220
991.665100	9.925827	-57.106766	-58.936058
992.033020	-19.856936	101.662277	37.867439
992.400818	-69.528564	-12.409968	-16.720118
992.768494	-2.481785	119.002045	-36.582565
993.136047	-79.467987	37.213474	-63.904591
993.503723	-64.559555	-19.857071	-4.309377
993.871277	0.000000	111.571342	22.984966
994.238770	-7.445533	42.173615	-16.720118
994.606140	-104.323944	-52.138813	0.654107
994.973450	-27.304979	-67.044075	-76.327972
995.340759	-76.982933	-44.687611	-6.791343
995.708008	-37.237225	74.403946	-53.967815
996.075195	7.444594	-44.687611	-31.616358
996.442200	-64.559555	111.571342	-11.755454
996.809265	-29.787918	-52.138813	-41.549332
997.176270	-94.380249	-94.380386	-21.685068
997.543152	-34.753971	-64.559685	-26.650570
997.910095	4.963121	-24.822283	-6.791343
998.276733	-67.043938	71.925262	-71.358246
998.643494	-129.190582	-91.894699	-31.616358
999.010193	-126.703529	-17.374554	18.023220
999.376831	17.369307	47.133209	60.184177
999.743286	-72.013290	-34.754105	-81.297981
1000.109802	94.229568	74.403946	60.184177
1000.476257	-94.380249	37.213474	32.906940
1000.842651	-54.622669	-19.857071	40.347538
1001.208923	-9.927631	12.406956	-19.202473
1001.575134	-52.138680	-34.754105	-11.755454
1001.941284	-22.339558	42.173615	-16.720118
1002.307434	-52.138680	-27.305115	-56.451885
1002.673523	-27.304979	-22.339691	-36.582565
1003.039429	-101.837822	-42.204041	10.579959
1003.405334	79.361000	84.317505	27.946159
1003.771179	-62.075138	-17.374554	-68.873680
1004.137024	12.407091	-76.983070	-34.099476
1004.502808	-34.753971	-91.894699	-76.327972
1004.868408	32.253189	-22.339691	-1.827515
1005.234009	-27.304979	-7.445668	-71.358246
1005.599609	-7.445533	156.142014	-14.237735
1005.965149	-64.559555	-2.481920	-44.032738
1006.330444	-101.837822	-22.339691	-81.297981
1006.695862	-81.953140	-14.892141	-51.483990
1007.061218	-17.374418	-2.481920	-19.202473
1007.426453	94.229568	29.772621	30.426670
1007.791626	-52.138680	76.882530	-31.616358
1008.156677	52.092663	32.253056	3.135760
1008.521729	64.488876	86.795677	-24.167767
1008.886780	-91.894699	19.850122	-98.696594
1009.251709	-47.171146	74.403946	-1.827515
1009.616577	-27.304979	-67.044075	-63.904591
1009.981384	-7.445533	57.051296	5.617309
1010.346130	79.361000	111.571342	18.023220
1010.710754	54.572029	225.409332	-46.516384
1011.075439	49.613056	215.518890	-31.616358
1011.439941	14.888249	19.850122	-56.451885
1011.804443	-64.559555	42.173615	-6.791343
1012.168884	-19.856936	-12.409968	-11.755454
1012.533325	-91.894699	-62.075272	-73.843056
1012.897522	-89.409119	-12.409968	-71.358246
1013.261780	-116.755981	-129.190720	-73.843056
1013.626038	-7.445533	39.693600	8.098619
1013.990112	-81.953140	2.481545	5.617309
1014.354187	-54.622669	22.330835	0.654107
1014.718140	-24.822149	39.693600	-66.389084
1015.082153	17.369307	59.530590	-34.099476
1015.446045	-2.481785	49.612923	-49.000134
1015.809937	-57.106766	39.693600	15.542327
1016.173523	-69.528564	7.444459	42.827393
1016.537170	-29.787918	81.839241	3.135760
1016.900879	2.481545	62.009785	-53.967815
1017.264404	-59.590828	-7.445668	-39.065895
1017.627991	-19.856936	2.481545	-61.420204
1017.991333	-59.590828	-99.352089	-58.936058
1018.354675	-7.445533	27.292219	-71.358246
1018.718018	-67.043938	-52.138813	-46.516384
1019.081299	-44.687473	126.431839	-14.237735
1019.444397	-47.171146	96.707062	32.906940
1019.807495	0.000000	-79.468124	-56.451885
1020.170593	17.369307	-22.339691	-19.202473
1020.533691	-64.559555	146.240250	-21.685068
1020.896606	-2.481785	49.612923	-56.451885
1021.259460	-81.953140	27.292219	-61.420204
1021.622253	-64.559555	-32.270958	-153.412140
1021.985046	-86.923637	-79.468124	-16.720118
1022.347778	-49.654930	-37.237358	-24.167767
1022.710327	-49.654930	-47.171284	-4.309377
1023.072876	-52.138680	-47.171284	-31.616358
1023.435364	-44.687473	-79.468124	-61.420204
1023.797852	-64.559555	-19.857071	70.100098
1024.160278	-116.755981	-74.498131	-78.812859
1024.522461	-74.498131	-84.438408	-41.549332
1024.884766	-79.467987	-94.380386	-103.668663
1025.246948	-91.894699	27.292219	-11.755454
1025.609131	-89.409119	-67.044075	0.654107
1025.971069	44.653534	32.253056	-44.032738
1026.333130	-57.106766	-37.237358	-49.000134
1026.694946	-42.203907	54.571896	45.307281
1027.056885	71.925400	262.484924	92.404945
1027.418823	-104.323944	-27.305115	13.061195
1027.780396	-27.304979	32.253056	-56.451885
1028.142090	-4.963674	57.051296	-9.273415
1028.503784	-17.374418	-101.837959	-88.753876
1028.865479	-32.270958	-57.106766	-46.516384
1029.226807	-39.720581	-74.498131	-68.873680
1029.588135	-32.270958	-9.927766	-26.650570
1029.949707	-32.270958	-0.000135	-21.685068
1030.310913	54.572029	84.317505	32.906940
1030.672241	-2.481785	27.292219	-4.309377
1031.033325	22.330971	24.811581	10.579959
1031.394531	-9.927631	111.571342	13.061195
1031.755493	-24.822149	69.446617	-4.309377
1032.116577	-4.963674	-12.409968	-56.451885
1032.477417	39.693733	-2.481920	-31.616358
1032.838257	7.444594	-161.533432	8.098619
1033.199097	-59.590828	-4.963809	-34.099476
1033.559937	39.693733	-9.927766	-73.843056
1033.920654	12.407091	7.444459	-19.202473
1034.281128	-9.927631	7.444459	5.617309
1034.641724	59.530727	49.612923	-11.755454
1035.002197	39.693733	168.516876	-81.297981
1035.362671	86.795677	59.530590	-39.065895
1035.722900	-37.237225	-57.106766	-86.268562
1036.083252	17.369307	66.967735	-39.065895
1036.443481	-37.237225	-32.270958	-39.065895
1036.803711	22.330971	-59.590965	-11.755454
1037.163940	111.571480	237.770386	109.747238
1037.523804	7.444594	59.530590	27.946159
1037.883789	-57.106766	-131.678009	-14.237735
1038.243774	-39.720581	-62.075272	-11.755454
1038.603638	14.888249	64.488747	-1.827515
1038.963257	42.173752	121.478790	22.984966
1039.323120	-14.892141	-69.528694	-9.273415
1039.682861	-19.856936	-116.755981	-131.022156
>>>>>End Processed Spectral Data<<<<<
