Jaz Data File
++++++++++++++++++++++++++++++++++++
Date: Tue Dec 02 20:32:39 2014
User: jaz
Dark Spectrum Present: Yes
Reference Spectrum Present: Yes
Processed Spectrum Present: No
Spectrometers: JAZA2310
Integration Time (usec): 30800 (JAZA2310)
Spectra Averaged: 5 (JAZA2310)
Boxcar Smoothing: 0 (JAZA2310)
Correct for Electrical Dark: Yes (JAZA2310)
Strobe/Lamp Enabled: No (JAZA2310)
Correct for Detector Non-linearity: Yes (JAZA2310)
Correct for Stray Light: No (JAZA2310)
Number of Pixels in Processed Spectrum: 2048
>>>>>Begin Processed Spectral Data<<<<<
W	D	R	S
188.301102	0.000000	0.000000	0.000000
188.764923	0.000000	0.000000	0.000000
189.228699	-51.754860	-26.221819	-67.006233
189.692459	-31.887136	-65.960037	-23.294771
190.156158	-37.846775	-32.180878	-36.206417
190.619812	-15.004877	-18.773911	-42.663036
191.083435	6.835370	0.089896	6.489592
191.547043	-27.418011	22.917097	11.452438
192.010590	-57.716660	5.549285	6.489592
192.474091	31.148029	12.993450	-3.933163
192.937561	23.210428	49.207237	-14.358030
193.401001	-15.998048	5.053145	-0.458797
193.864410	13.782901	18.947945	5.000643
194.327759	13.286965	13.985727	44.691299
194.791077	40.572800	-0.902615	5.000643
195.254349	26.187103	-19.767010	4.504363
195.717575	48.508354	18.451649	-4.925877
196.180786	38.092983	17.459311	53.617786
196.643951	4.354008	22.917097	20.880066
197.107071	33.628677	12.497237	23.856857
197.570145	-3.587324	14.481928	-10.882780
198.033203	15.767817	-7.851874	6.985855
198.496216	0.879790	1.082796	-12.372167
198.959167	-7.061874	-44.100681	23.856857
199.422089	0.879790	-14.305375	-15.350784
199.884979	-31.887136	-12.319784	-16.840284
200.347855	-21.955801	-22.249357	-11.379193
200.810654	5.346700	13.985727	-20.315752
201.273422	6.339106	-11.823362	-12.868592
201.736160	1.376100	-23.242516	-33.723072
202.198853	4.850153	-24.235554	-35.213039
202.661514	-22.452309	-35.657120	-20.315752
203.124130	-22.452578	-14.801952	-60.050095
203.586700	-30.397390	-25.228746	-46.140034
204.049240	-33.377060	-24.235689	-39.682762
204.511734	-44.303711	-8.348262	-72.969452
204.974197	-2.594633	-34.167141	-16.343960
205.436615	-24.935040	-13.808937	-9.889965
205.899002	-55.729053	-23.242516	-6.415248
206.361343	-28.907547	-26.221819	-33.723072
206.823654	-49.767731	-23.739033	-36.206146
207.285919	-45.793941	-22.249357	-26.274212
207.748123	-48.774395	-0.902615	-35.709660
208.210327	-41.820293	-1.895277	-18.329823
208.672485	-53.742058	-44.597378	-16.343960
209.134583	-50.264744	-4.873635	-25.777674
209.596649	-56.226120	-24.235554	-66.509346
210.058670	-51.754860	-30.690989	-29.750374
210.520676	-26.424784	-60.494228	-46.636742
210.982635	-11.033444	-42.610489	-42.166359
211.444534	-72.623207	-8.844788	-35.709660
211.906403	-36.853638	-48.571079	-11.875745
212.368240	-34.370132	-15.298399	-31.239969
212.830048	11.797918	-32.180878	-55.081760
213.291779	-50.761223	-6.362601	-23.294771
213.753494	-50.264473	-4.873635	-26.770756
214.215179	-40.330158	-46.584332	-43.656269
214.676819	-28.907547	-13.809207	-22.301748
215.138412	-51.754860	-18.277435	-65.515594
215.599960	-34.370403	-48.074352	-50.113842
216.061493	-7.558525	-25.725281	-49.617237
216.522949	-26.921328	-59.003887	-34.716156
216.984406	-56.722782	-33.670536	-32.233143
217.445801	-41.323353	-20.263227	-34.219677
217.907166	-17.487295	5.053145	-11.875745
218.368484	-23.941988	-33.174068	-31.239969
218.829773	-25.928244	13.985727	-49.617374
219.291031	-13.019128	0.090166	7.978503
219.752228	-62.188236	-48.571350	-41.669682
220.213379	-40.330158	-13.809207	-20.812380
220.674500	-21.955801	-38.637188	-50.113842
221.135574	-2.594498	-53.539001	-3.436813
221.596634	-15.998048	-46.087620	-28.260277
222.057648	-38.343414	-2.888092	-19.819263
222.518600	-16.494370	-32.180878	-21.308876
222.979553	-39.336845	-43.603855	-29.253805
223.440430	-34.867016	-39.630489	-13.861591
223.901276	-15.501595	-29.697706	-23.791424
224.362076	-22.452309	-40.127144	-43.656269
224.822845	-49.767731	1.578969	-37.696175
225.283569	-36.357010	-21.256351	-36.206146
225.744278	-43.310192	-16.291439	-36.206146
226.204910	-9.047829	-47.577629	-43.159580
226.665512	-47.780937	-25.725281	-24.784742
227.126114	-32.880459	-36.153740	-1.451317
227.586639	-30.893969	-4.377277	-32.729874
228.047119	-2.098428	-4.377277	3.015365
228.507568	-32.383865	-51.055058	4.504363
228.967972	-67.157043	8.031003	-12.868322
229.428345	-20.466442	-16.291304	-12.868592
229.888687	-55.729324	-40.623669	-13.861591
230.348984	-21.955801	-18.277435	-53.591419
230.809219	-27.914293	-37.147133	-42.166088
231.269440	-38.840195	4.060583	-39.186108
231.729614	-21.955801	-37.147133	-16.840284
232.189758	-34.866745	-41.617275	-19.819399
232.649841	-35.363632	-10.333989	-30.246946
233.109894	-39.833500	-31.684155	-0.955123
233.569901	-42.316967	-23.738762	-22.798258
234.029892	-54.238834	-22.745867	-18.329689
234.489822	-25.928244	-40.127144	-37.696175
234.949707	-50.264473	-7.851874	-28.260548
235.409561	-23.941988	-13.312773	-23.791424
235.869385	-39.336845	5.053145	-11.379328
236.329163	-20.466171	-26.221819	-12.868592
236.788895	-27.914564	-30.194412	-81.418282
237.248581	-66.163139	-31.187569	-37.199673
237.708237	-39.336845	-31.684288	-37.696175
238.167847	-45.297375	-34.664021	-40.179554
238.627441	-40.826958	-57.016510	-33.226471
239.086960	-28.411121	-25.228746	-16.343691
239.546463	-4.083810	-38.140411	-23.295042
240.005920	-41.323353	-29.697840	-9.393700
240.465332	-25.431707	-32.180878	-5.918742
240.924698	9.316763	-36.650501	-21.805378
241.384033	-50.761494	-2.391750	-46.636742
241.843338	-4.083675	1.082796	-9.393700
242.302597	-63.181934	-15.298399	-70.981598
242.761810	-53.742058	-1.895412	-21.805378
243.220993	-73.120140	-27.711594	-72.472519
243.680115	-73.617218	-33.670536	-41.173012
244.139221	-52.748520	-51.055058	-13.861321
244.598282	-42.813782	-75.898720	-30.743389
245.057297	-63.678658	-55.029202	-13.365023
245.516266	-39.336845	-31.684288	-33.226471
245.975189	-44.303711	-45.094212	-27.763721
246.434082	-2.594498	-34.167141	-41.669682
246.892944	-34.370132	-29.697706	-61.043755
247.351761	-3.587324	-42.113811	-18.826300
247.810516	-19.473331	0.089896	-11.875745
248.269272	-11.529859	-28.704575	-41.669411
248.727951	-41.820293	1.082525	-22.301748
249.186600	-58.710148	-9.837584	-40.179554
249.645218	-28.907547	5.549555	-54.088196
250.103790	-28.907547	1.578969	-18.329823
250.562317	-1.602093	8.527118	-28.757107
251.020813	2.368707	-54.035774	-39.186245
251.479279	-23.445469	-61.984875	-44.153229
251.937668	-48.774395	-16.291439	-17.336748
252.396057	-44.800404	-29.201138	-52.597748
252.854385	-45.297104	-8.348262	-13.861321
253.312683	-45.793808	-37.147133	-43.656536
253.770920	-38.343414	-33.174068	-74.460289
254.229126	-58.710148	-50.558304	-24.287947
254.687302	-26.921463	-11.823362	13.933369
255.145432	-51.258106	-18.277435	-65.018852
255.603500	-29.404112	-8.844788	-3.436813
256.061584	-47.780804	-36.650501	-44.153229
256.519592	-21.955801	-23.242516	-23.295042
256.977570	-24.438513	-50.558304	-59.056313
257.435455	-20.466442	8.527118	-71.975723
257.893372	-12.522700	-54.532417	-25.777538
258.351196	5.842972	-10.830398	-54.584972
258.808990	-33.377060	-40.126873	-4.429653
259.266754	-39.833500	-42.113811	-60.546925
259.724487	-49.271130	-15.298399	-13.365157
260.182190	-36.356739	-34.167141	-67.999878
260.639832	-50.264744	-45.094074	-38.689461
261.097443	-35.363632	-34.167141	-44.649788
261.554993	-40.330158	-26.718225	-46.636742
262.012512	-29.900682	-46.087620	-29.750105
262.469971	-19.969816	-15.298399	0.533841
262.927429	-48.774124	-50.061424	-17.336748
263.384827	-26.424784	-24.732216	-60.049961
263.842194	-22.948820	-30.194277	-19.819263
264.299530	-63.181934	-26.221819	-20.812109
264.756805	-23.445469	-19.766739	-24.784473
265.214050	-47.780804	-29.201408	-24.784473
265.671234	-23.445469	-13.809207	-66.012466
266.128387	-22.949089	-48.074352	-27.267439
266.585510	-21.459435	0.089896	-33.226471
267.042572	-31.390551	-25.725010	21.376343
267.499573	-68.150826	-8.844788	-12.372167
267.956604	-9.544091	-71.923149	-10.882780
268.413574	-32.880459	-31.187569	-15.350784
268.870483	-36.357010	-33.670536	-23.791424
269.327362	-6.565767	5.549555	-50.113842
269.784180	-27.417742	-21.752853	-44.153229
270.240936	-51.754860	-44.597378	-46.140034
270.697693	-37.847046	-29.697706	-47.630180
271.154419	-59.703789	-33.670536	-18.329823
271.611053	-21.955801	-18.277435	-34.219677
272.067688	-21.459435	-48.571079	-42.663036
272.524292	-42.316967	-29.201138	-22.798529
272.980835	-60.697578	-55.526257	-32.233280
273.437347	-51.258106	-26.718225	-2.940466
273.893799	-36.356739	-13.312503	-17.833216
274.350250	-27.418011	-41.120335	-30.246946
274.806610	-24.935040	-16.291304	-37.199673
275.262939	-25.928244	-22.249357	-45.643459
275.719238	-9.047829	-1.895412	-26.274212
276.175507	-39.336845	-25.228746	-25.281139
276.631714	-8.551435	-29.697706	-12.868592
277.087891	-41.323353	-32.180878	-53.591419
277.544067	-39.336845	-65.463158	-50.610588
278.000122	-28.907818	-56.022915	-35.213039
278.456177	11.797918	-44.100681	-37.696041
278.912201	-47.780937	-17.780964	-40.676350
279.368164	-4.083810	-48.571350	-58.559494
279.824097	-30.397390	-79.874832	-33.723072
280.279968	-46.290653	-29.697706	-54.088196
280.735840	-47.284084	-16.787897	-45.146488
281.191620	-25.431707	-20.759720	-3.436813
281.647400	-63.181934	-22.746002	-31.736555
282.103149	-38.343414	-17.284361	-30.743389
282.558838	-52.251888	-40.623669	-14.358030
283.014465	-31.390821	-8.348532	-26.274212
283.470062	-46.787365	-37.146999	-23.295042
283.925629	-14.011859	-36.650501	-20.812380
284.381134	-33.377060	-43.603992	-21.308876
284.836639	-11.033309	-18.277435	-5.422375
285.292053	-47.780804	4.556866	-11.875609
285.747467	-30.397390	-7.851874	-14.854472
286.202820	-38.343685	-8.348262	-7.408004
286.658142	-50.761494	7.038220	-18.329823
287.113434	-34.370403	6.045826	-70.981598
287.568634	-41.820293	-35.657120	-26.770756
288.023804	-44.303711	-33.670536	-41.173012
288.478973	-49.767731	-5.369998	-51.604229
288.934113	-6.069259	-30.690989	-33.226471
289.389130	-19.473331	-29.697706	-48.623768
289.844208	-29.900951	-19.270390	-50.610859
290.299164	-35.363632	-36.650368	-56.075470
290.754089	-65.169388	-46.087349	-49.120228
291.208984	-30.397390	-14.801952	-23.295042
291.663879	-48.774395	-31.684155	-49.617237
292.118683	-23.445333	-35.160500	-16.343691
292.573456	-31.390551	-55.029472	-45.146488
293.028198	-46.787098	-59.003887	-8.897304
293.482849	-14.508569	-41.120335	-28.757107
293.937561	-26.424784	-29.201138	-4.926012
294.392151	-17.487295	-22.249357	-20.315752
294.846741	9.813003	5.549555	-38.689461
295.301239	-37.350140	-27.711594	-32.233143
295.755737	-46.787365	-9.341185	-26.770756
296.210175	-73.120140	-35.160500	-55.578682
296.664581	-49.271130	-35.160500	-22.301748
297.118958	-34.370403	-30.690989	-57.566006
297.573242	-13.019128	-35.160500	-55.081760
298.027557	-27.914564	-27.711594	-25.281004
298.481812	-57.716660	-31.684155	-10.883050
298.935974	-42.813782	-22.745867	-39.682896
299.390137	-48.277664	-29.201138	-23.791424
299.844238	-48.277393	-26.718225	-48.126904
300.298340	0.383610	-60.991333	-18.329689
300.752350	-30.893969	-8.348262	-23.791424
301.206360	-44.303711	-35.160366	-44.153229
301.660278	-28.907547	-31.684288	-24.287947
302.114197	-11.033444	-31.187704	-85.891953
302.568054	-1.601823	-15.794984	-62.534149
303.021881	-42.813511	-40.623940	-24.784473
303.475677	-38.343414	-33.174068	-21.308876
303.929413	-22.949089	-17.780828	-55.081760
304.383118	-35.860115	-28.704575	-34.716156
304.836761	-29.404383	-51.055058	-19.819263
305.290375	-55.232265	-37.146999	-16.840284
305.743958	18.248837	3.564296	-21.308876
306.197510	-30.397390	-10.830398	-5.422375
306.650970	-32.383728	-32.677471	-53.591419
307.104431	-27.417742	-12.816344	-25.281139
307.557800	-28.411121	-26.221819	-50.610588
308.011169	-15.004877	-2.391615	-51.604092
308.464508	-38.343685	-12.319784	-59.056313
308.917755	-32.383865	-37.147133	-10.386371
309.371063	-62.188236	-30.690989	-36.703045
309.824219	-12.026278	-28.704575	10.956078
310.277374	-10.040493	-37.147133	-15.847506
310.730499	-68.150826	-25.725281	-21.805378
311.183563	-42.316967	-52.545464	-33.226471
311.636597	-12.522700	-45.094212	-6.415113
312.089569	-37.350140	-40.623940	-2.940466
312.542511	-22.949089	-29.201138	-14.358030
312.995422	-19.969816	-24.235554	-8.400640
313.448273	-35.860115	-50.558304	-10.883050
313.901093	-10.536899	-36.650501	-10.882780
314.353882	-33.377193	-33.670536	-22.301748
314.806580	-30.893969	-60.991333	-28.260548
315.259308	-19.473331	-13.808937	-51.604229
315.711975	-55.729053	-16.787628	-41.669682
316.164581	-27.914564	-24.235554	-24.287947
316.617126	-28.907547	-29.201138	-41.173012
317.069672	-36.356739	-10.830398	-46.139896
317.522156	-10.536899	-39.133835	-14.854472
317.974579	-48.277664	-57.016510	-31.239969
318.427002	-12.522700	-28.704575	-34.219677
318.879333	-16.990829	-7.851874	-37.199673
319.331665	-38.840061	-19.767010	-45.643188
319.783936	-38.840061	-16.787897	-36.702774
320.236176	-19.473331	-22.746002	-42.663036
320.688354	-23.941988	2.075273	-52.597748
321.140503	-85.545631	-12.319784	-67.006371
321.592651	-28.411121	-8.348262	-61.540596
322.044647	-20.962936	12.993450	-37.199673
322.496704	-45.297104	-23.242516	-37.696175
322.948639	-27.417742	-21.256351	-44.153229
323.400604	-17.983765	-54.532417	-41.173012
323.852509	-1.601823	-3.384438	-16.840284
324.304352	-59.703789	-15.298399	-22.798258
324.756165	-39.336845	2.571843	-33.226471
325.207916	-13.019128	-19.766739	-26.274212
325.659668	-59.703789	-2.888361	-26.274212
326.111328	-32.383865	-75.898720	-26.770756
326.562988	-51.258106	-30.690989	-56.572266
327.014557	-36.853638	-5.369998	-29.253536
327.466156	-19.969952	-27.214773	-57.068935
327.917664	-39.336845	-33.670536	-57.068935
328.369110	-33.873798	-42.610489	-38.192814
328.820557	-38.840195	-22.746002	-15.847506
329.271942	8.820520	-26.221819	-33.723072
329.723297	-20.466171	-8.844653	-17.833487
330.174561	-19.969816	-47.081047	25.345331
330.625854	-41.820023	16.963135	17.903124
331.077026	-22.949089	-38.637054	17.903124
331.528229	16.760183	12.001021	37.251381
331.979370	-39.336845	-38.140411	15.918280
332.430450	-22.948820	-29.697706	-22.798529
332.881500	-16.990829	-40.127144	-27.763990
333.332489	-29.900951	-20.263227	4.008214
333.783478	-31.887272	-8.348262	-34.219677
334.234406	-17.487564	-24.235554	-25.281139
334.685303	-59.206963	6.045826	-32.233280
335.136078	-63.678658	6.542228	-39.682762
335.586914	-39.336845	-22.249628	-39.186245
336.037659	-33.873661	-4.377277	3.511927
336.488342	-16.991100	-26.221819	-34.219677
336.939026	-35.860115	-40.127144	-8.400640
337.389648	-14.508569	21.428831	-23.295042
337.840240	-10.040763	-2.391615	-16.840284
338.290771	-54.238834	-14.305510	-24.287947
338.741272	-49.767731	-30.194412	-14.854472
339.191681	-57.716660	-7.851874	-11.379193
339.642120	-41.820293	-16.291439	-16.343960
340.092468	-53.742058	31.847122	-19.322779
340.542816	-34.866745	-5.866230	-27.763990
340.993103	-20.962936	-22.745867	-13.861591
341.443329	-16.494370	7.534479	7.482248
341.893555	-31.390551	-2.391750	-22.798258
342.343689	-64.175789	25.893921	-25.777674
342.793793	-6.069259	23.413221	-12.372167
343.243866	-37.350140	43.751598	-12.868592
343.693878	-37.846775	20.932419	3.015365
344.143890	-61.691391	46.231583	-0.955123
344.593842	-10.536899	51.190704	-40.676212
345.043732	-38.343414	16.963135	-14.358030
345.493591	-44.303711	22.917097	-19.322779
345.943359	-33.873798	34.823364	-12.372167
346.393158	-30.893969	62.595520	-28.260548
346.842896	-24.935175	75.485527	-50.113842
347.292542	-29.404383	83.911797	-26.274212
347.742218	-15.501595	41.767887	-21.308876
348.191803	-17.983898	49.703144	-28.260548
348.641357	-30.397390	12.001021	-20.315752
349.090881	-24.935175	14.482198	-28.260548
349.540314	-37.350140	62.595520	12.940954
349.989777	-17.487295	52.678493	-14.358030
350.439148	-47.284084	59.124844	-47.133461
350.888489	-39.833500	40.775803	7.482113
351.337799	-18.976849	55.157970	-19.322779
351.787048	-58.710148	79.450912	-30.743389
352.236267	-25.431707	41.767616	-12.868592
352.685425	-35.860115	65.570496	-59.553131
353.134552	-19.969816	115.624481	-35.709660
353.583649	-57.716660	132.960388	-29.253536
354.032684	-33.377060	153.756485	-6.415113
354.481659	-42.813511	137.912491	-9.393700
354.930634	-40.330158	181.474213	-11.379328
355.379517	-27.418011	202.748596	-33.226471
355.828430	-36.357010	254.172791	-12.868592
356.277222	-3.090976	369.722687	0.533976
356.726013	-75.108070	541.179199	-31.239969
357.174774	-12.026278	663.584473	9.963345
357.623444	-1.601823	808.314636	-31.736555
358.072113	12.790350	785.766724	-11.875745
358.520721	-33.377060	710.225769	-10.386371
358.969299	-47.284084	624.773254	2.519338
359.417786	-24.935175	552.987183	-17.833216
359.866302	-29.900951	456.000671	-9.393700
360.314697	-19.969816	443.189514	-1.451587
360.763123	-60.200615	524.939758	-1.947921
361.211456	-43.807152	720.531982	4.504363
361.659760	-41.820293	760.759033	-12.868592
362.108032	-18.976849	760.269043	-6.911624
362.556244	-15.501326	766.643982	2.519203
363.004456	-11.033309	886.195679	11.452438
363.452576	-39.833500	1125.668091	7.482248
363.900696	-14.508569	1579.512207	31.794777
364.348663	-31.887272	2480.585205	49.154640
364.796722	-15.004877	3696.967773	60.064034
365.244690	-15.501326	4378.685059	91.293755
365.692596	-36.853367	4260.883301	62.047405
366.140472	-36.853638	3471.601807	26.833771
366.588287	-52.251888	2543.427734	37.251247
367.036102	-39.336712	1787.308594	-20.315752
367.483826	-50.264473	1176.393188	7.978503
367.931549	-54.735619	789.198730	7.978503
368.379181	-45.793808	670.459961	38.739521
368.826843	-5.076527	660.637390	10.459847
369.274384	-40.330158	660.637390	17.406954
369.721924	-49.767731	616.418823	-0.458797
370.169403	-5.572891	604.130676	25.841707
370.616821	-52.251621	612.486694	26.833771
371.064270	-71.132561	621.825012	12.444607
371.511566	-49.271130	697.954834	3.015634
371.958923	-14.012130	750.459473	19.391750
372.406158	-18.480371	739.667358	5.497189
372.853424	-25.928244	741.139221	13.933369
373.300568	-27.418011	672.915344	3.015634
373.747711	-38.343414	684.700073	-1.451317
374.194794	-14.508569	719.060059	0.037524
374.641846	-51.258106	676.843689	26.833771
375.088898	-13.515425	668.986633	6.985855
375.535828	-55.729324	742.120300	-2.940466
375.982758	-30.893969	755.854736	-7.904387
376.429596	-9.047829	769.096252	10.956078
376.876465	-61.691257	780.373535	41.219307
377.323242	13.782901	791.649536	24.353245
377.769989	-48.774395	774.980225	30.802662
378.216675	-35.860115	800.473022	0.037524
378.663330	-19.473331	847.510986	12.444877
379.109985	-41.820293	914.094238	29.810532
379.556519	-67.156906	960.077881	41.219307
380.003052	-37.350140	1022.157898	4.008214
380.449524	-35.860115	979.636719	10.459847
380.895996	-26.424784	975.236267	34.274990
381.342377	-42.316967	974.747253	57.089054
381.788727	-44.800404	1009.452942	25.345331
382.235046	-42.316696	1033.394653	37.251381
382.681274	-38.343414	1246.570190	49.650547
383.127533	-25.431707	1316.194458	49.154640
383.573669	-15.005148	1434.846802	3.015365
384.019836	-20.466171	1402.770386	61.055660
384.465912	-17.487564	1367.276733	47.170841
384.911957	-23.941988	1260.207764	56.593208
385.357971	-23.445469	1143.718750	48.162819
385.803925	-70.138588	1129.083374	9.963614
386.249847	-19.969952	1224.646851	20.383919
386.695679	-21.459435	1296.725586	18.399158
387.141541	-16.494370	1473.709229	26.833771
387.587311	-29.900951	1602.303589	71.467293
388.033051	-24.438513	1604.242798	22.368616
388.478729	-55.729324	1482.450806	55.105515
388.924408	-13.019128	1490.705688	31.298723
389.369995	-45.297104	1582.906616	56.593208
389.815552	-18.480236	1951.137939	49.650547
390.261078	-17.487295	3074.215576	59.568352
390.706543	-22.948820	4920.860840	47.171112
391.152008	-21.459435	6192.636719	29.314325
391.597351	-23.445469	6354.379883	59.568352
392.042725	-15.998048	5348.474121	53.121910
392.487976	-24.935040	4402.230469	31.794777
392.933289	-15.005148	3694.123779	32.786739
393.378479	-17.983765	3329.960449	50.642483
393.823639	-59.703789	3173.830566	83.859497
394.268768	-40.826820	3021.746826	28.818251
394.713837	-21.955801	2781.934326	74.441559
395.158905	-5.076527	2537.672607	51.138378
395.603851	-25.431707	2561.169678	84.355255
396.048798	-22.948820	2583.221680	74.441826
396.493683	-39.336845	2707.764893	64.030716
396.938568	-38.840195	2486.823730	49.650684
397.383392	-35.860115	2184.010010	53.121910
397.828156	-19.473331	2031.244141	88.815903
398.272888	-52.251888	1795.048462	63.039135
398.717560	-49.271130	1940.999023	34.771290
399.162201	-56.723049	2404.732910	98.231453
399.606781	-16.990829	2868.947510	81.381210
400.051361	-59.703922	3025.086426	105.663795
400.495819	-38.343414	2890.449463	99.717941
400.940308	-20.962936	3111.404053	106.159241
401.384705	-44.800404	4034.821533	95.753891
401.829102	-27.417742	6297.399902	94.267166
402.273438	-27.418011	8588.899414	79.894402
402.717682	-28.411121	9103.275391	115.572075
403.161926	-18.480371	8320.948242	78.903084
403.606110	-55.232265	7365.070801	134.393631
404.050293	-12.522700	8002.633301	143.306946
404.494385	-33.873798	10005.237305	171.524200
404.938446	-22.949089	11010.118164	190.823074
405.382477	-25.431572	10190.812500	214.072739
405.826447	-41.323353	8154.350586	160.635086
406.270386	-7.062144	6406.241699	122.011818
406.714233	-29.900682	4731.815430	106.159241
407.158081	-8.551165	4196.746094	94.762566
407.601868	-17.983765	4644.928223	108.141090
408.045624	-11.529859	5702.864746	100.709045
408.489319	-30.893969	6219.994629	104.177589
408.933014	-22.452578	5674.924805	103.681870
409.376617	-18.976849	4804.092773	60.064034
409.820190	-13.515695	3970.078125	108.636368
410.263702	-19.969952	3309.982666	103.681732
410.707184	-36.357010	2882.804688	94.762566
411.150635	-48.774395	2574.113525	95.258102
411.594025	-33.377060	2379.755127	108.636368
412.037384	-19.473331	2255.240479	124.488304
412.480682	-26.921328	2463.788086	106.654678
412.923981	-45.297104	3096.626709	97.735817
413.367126	-4.580166	3829.587402	96.744797
413.810333	-52.748520	4459.660156	131.422180
414.253479	-52.748520	4533.992676	120.525742
414.696533	-48.774395	4742.613281	107.149971
415.139587	-39.833500	4901.642090	153.704529
415.582581	-55.232536	5087.131836	158.654800
416.025543	-8.054775	5260.645508	142.811676
416.468414	-33.377193	5581.277344	120.525742
416.911285	-31.887272	5349.408691	156.674744
417.354065	-60.697578	4458.248047	132.907990
417.796875	-45.793808	3669.475586	119.039635
418.239594	-50.264473	3284.289063	148.258347
418.682281	-10.040493	2854.609863	154.694611
419.124908	-47.284084	2733.132813	168.059372
419.567505	-41.323353	2693.882324	166.079880
420.010071	-49.271130	2718.774658	171.524200
420.452545	-22.949089	2900.004150	162.119904
420.895020	-14.508569	3247.165527	136.869873
421.337372	-6.069259	3553.739014	141.821396
421.779785	-15.501595	3843.786865	165.584793
422.222107	-52.748386	3962.986816	144.792465
422.664368	-27.914564	4357.019043	176.968292
423.106628	-52.748386	4914.298828	182.411377
423.548798	-6.069259	5671.664551	163.604675
423.990967	-50.264473	6702.181152	173.009018
424.433044	-53.245289	8096.791016	145.287720
424.875092	-29.404383	8422.631836	172.514008
425.317078	-15.997778	7788.472168	205.169754
425.759064	7.331630	6352.990234	187.359604
426.200989	-44.800404	5380.226074	183.401001
426.642853	-22.949089	4385.749023	178.452713
427.084686	-32.880459	3822.487549	199.728149
427.526459	-45.297104	3724.927002	236.324615
427.968201	-6.069259	3717.344971	179.442139
428.409912	-22.948820	3816.333008	198.738785
428.851563	-7.558525	3995.601563	192.802292
429.293121	-10.537169	3994.184082	225.941330
429.734711	-39.336845	4051.827148	184.885544
430.176239	-43.310192	4196.746094	206.653763
430.617706	-30.893969	4553.743164	208.137466
431.059113	-63.678658	5890.827637	206.159012
431.500488	-47.284084	7152.158691	224.458038
431.941833	-24.438513	8390.266602	222.479843
432.383087	-15.004877	8138.363281	204.674973
432.824341	-44.800404	7370.583496	206.653763
433.265533	-21.955801	6156.921875	197.749405
433.706726	-44.303711	5192.394043	214.567429
434.147827	-45.793808	5038.915039	223.963425
434.588867	-31.390551	5384.894531	267.958344
435.029877	-22.948820	7880.951172	354.868408
435.470825	-32.383728	14377.366211	417.014709
435.911804	-5.076527	19100.943359	511.105804
436.352661	-17.983765	19183.166016	529.317383
436.793518	-23.941988	15274.958008	425.887787
437.234283	-17.487295	13675.581055	358.816132
437.675049	-50.761223	11790.493164	342.036957
438.115723	-52.748520	9038.855469	330.683960
438.556396	-21.459435	7068.830078	290.685272
438.997040	-53.742058	6214.430664	320.809937
439.437561	-49.271130	6052.967773	322.785034
439.878113	-47.780804	6224.631348	320.809937
440.318573	-30.893969	6168.055176	320.809937
440.759033	-7.558525	6096.138184	337.594757
441.199341	-65.666534	6222.776367	314.884827
441.639709	-29.404383	6327.978516	269.440887
442.079956	-42.813511	6074.322754	285.251465
442.520264	-24.438513	5621.819824	272.405518
442.960510	-12.026278	5562.166992	264.499481
443.400604	-9.047829	5222.784668	261.534210
443.840759	-9.047559	5043.127930	196.760010
444.280762	-8.551435	4877.731934	210.115875
444.720825	-38.840061	4750.124023	212.094467
445.160767	-55.232265	4517.060547	214.567169
445.600739	-57.219582	4333.464355	270.923340
446.040558	-26.424917	4081.109863	245.223404
446.480438	-30.397390	3786.504150	294.636749
446.920258	-62.188236	3603.559570	292.661041
447.359955	-13.019128	3505.793701	319.822510
447.799713	-41.820023	3924.687256	345.985474
448.239319	-36.853638	4069.302979	363.750092
448.678955	-25.431707	4159.944824	439.687927
449.118500	-28.411121	4267.012207	513.567139
449.558014	-44.303711	3999.854980	562.281799
449.997498	-72.623207	3880.696533	635.040466
450.436951	-66.660019	3754.299072	671.881226
450.876343	-53.245152	3605.457520	638.480042
451.315674	-43.310192	3612.097656	611.943481
451.754974	-51.754860	3750.509033	521.934631
452.194183	-29.900951	3991.821289	485.995331
452.633392	-28.907547	4242.495117	405.181946
453.072510	-4.083810	4215.613770	372.137360
453.511688	-33.873661	4192.972656	383.482941
453.950684	-34.370403	4247.209473	409.126251
454.389740	-35.860115	4187.311035	414.056610
454.828735	-22.949089	4231.648438	382.003387
455.267639	-47.284084	4325.454102	364.243591
455.706543	-17.487295	4388.575195	348.452881
456.145325	-53.245289	4510.475098	329.696686
456.584137	3.361433	4424.357910	271.417297
457.022858	-43.807152	4586.183105	256.097839
457.461578	-30.397390	4743.083008	216.051224
457.900208	-54.735619	4307.547363	244.234772
458.338867	-34.370403	3553.264160	174.493805
458.777405	-17.487295	3246.689697	208.137466
459.215912	-34.867016	3280.006348	169.544540
459.654388	-27.418011	3715.923584	174.493546
460.092773	-24.438513	4215.142090	202.696396
460.531189	-13.515695	4406.938965	187.359604
460.969513	-49.767731	4319.799316	190.823074
461.407806	2.368707	3608.302734	197.749405
461.846008	-25.431707	3083.276611	258.074677
462.284241	-49.271130	2530.479004	276.358398
462.722351	-15.004877	2214.337891	329.696686
463.160461	-4.083675	1965.138184	377.070313
463.598541	-26.921328	1905.742920	366.216827
464.036530	-11.033444	1906.709351	422.930054
464.474518	-21.459435	1913.954712	408.633087
464.912384	-33.873798	1968.034424	476.145538
465.350281	-39.336845	1978.170898	628.161255
465.788086	-38.343414	2095.853516	836.682678
466.225891	-19.969816	2355.250488	1089.502563
466.663605	-35.860115	2953.971680	1480.457520
467.101318	-18.976849	3518.613281	1720.956177
467.539001	-39.833500	3515.764648	1703.040649
467.976563	-50.761494	3463.526855	1589.159912
468.414124	-13.515695	3393.200928	1403.691284
468.851593	-21.955801	3435.972656	1174.391235
469.289063	-27.418011	3354.691162	1005.491699
469.726440	-56.722782	3432.646729	916.978516
470.163849	-26.921328	4080.165771	714.591248
470.601135	-13.515695	5415.235840	667.952637
471.038422	-24.438513	6404.852539	649.779419
471.475677	-26.424784	6641.200684	553.919128
471.912811	-14.012130	6554.761230	489.934998
472.350006	-40.330158	8268.937500	465.801544
472.787048	-78.089882	11832.379883	395.319489
473.224121	-55.232265	16751.755859	344.011139
473.661072	-46.787365	22455.970703	322.785034
474.098053	-38.343414	26891.308594	345.985474
474.534943	-41.323353	26287.224609	425.394989
474.971802	-45.297104	22215.050781	579.003906
475.408630	-29.404112	17857.027344	696.430603
475.845367	-58.213333	14353.592773	675.809509
476.282104	-39.336845	10760.521484	518.981567
476.718750	-30.397390	7551.022461	363.256866
477.155426	-11.033309	6148.572266	280.804962
477.591949	-8.054775	6456.693359	205.664246
478.028503	-39.336712	6731.736816	180.927048
478.464966	-30.397390	6512.675781	135.384171
478.901428	-46.290653	5828.516113	93.275818
479.337860	-5.572891	5702.865234	89.806923
479.774170	-46.787365	5273.263672	85.842079
480.210510	-38.840195	4689.554688	48.162819
480.646698	-29.404383	4783.447266	77.911621
481.082947	-29.404112	4896.485352	64.526497
481.519073	-22.452309	4727.121094	73.945862
481.955200	-34.867016	4770.776367	109.627472
482.391266	-50.761494	5269.057617	75.928772
482.827301	-80.077980	6004.208984	69.484230
483.263306	-19.969816	6892.326172	57.584896
483.699188	-48.277393	7868.136230	72.458595
484.135101	-58.213333	8407.133789	100.709045
484.570923	-42.316967	8284.907227	120.030418
485.006744	-22.452309	7666.133301	107.645668
485.442413	-41.323624	6980.377930	103.186409
485.878174	-44.303711	6090.104980	101.699867
486.313782	-26.424784	5456.767578	80.885567
486.749390	-40.826820	4904.454590	128.945984
487.184998	-57.219582	4624.254395	102.691078
487.620453	-45.297104	4733.694336	138.850449
488.055939	-21.955801	4752.471191	121.020927
488.491333	-3.090976	4581.953125	169.049225
488.926727	-31.390551	4304.720215	158.654526
489.362030	-24.438513	4132.099609	189.338669
489.797302	-25.928244	4110.857422	208.631943
490.232513	-59.703789	4156.641602	226.435654
490.667755	-21.955801	4783.447266	289.203278
491.102905	-42.813782	5096.024902	356.348602
491.537964	-26.921328	5208.759277	374.603760
491.973022	-43.807152	5317.648438	372.137115
492.407990	-53.742058	5383.026855	363.256317
492.842957	-33.377060	5115.679199	339.075623
493.277832	-14.508569	4953.665527	314.884827
493.712738	-11.033309	5412.435547	374.110596
494.147491	-17.487564	5411.968262	388.415009
494.582275	-2.594633	5277.002441	442.644897
495.017029	-51.754860	5723.815430	535.714661
495.451660	-27.914564	6230.658691	685.139343
495.886292	-44.800404	5948.924805	997.671753
496.320831	-20.466442	4817.699219	1429.936523
496.755402	-15.501326	5016.437500	2084.234619
497.189850	-92.007584	6194.954590	3486.274414
497.624298	-9.047559	7645.962402	5672.546387
498.058655	-22.452309	8556.116211	8154.301270
498.493042	-45.793941	9000.280273	9855.029297
498.927368	-41.820293	9130.031250	9711.037109
499.361572	-64.175789	8753.144531	7996.183105
499.795807	-31.390551	7905.661621	5894.962891
500.229919	-47.284084	6458.544434	4454.904297
500.664063	-68.647728	5434.837402	3292.803467
501.098083	-40.826820	5166.204102	2382.105957
501.532104	-27.418011	6199.128906	1718.051636
501.966064	-44.303711	6910.770996	1298.134277
502.399994	-37.846775	7564.326660	966.872437
502.833893	-24.935040	8056.118652	742.558960
503.267700	-33.873661	8197.274414	578.020142
503.701477	-38.343414	7800.377930	457.426514
504.135193	-35.860386	6596.370605	401.237091
504.568909	-31.390551	6045.539551	311.922211
505.002502	-22.452578	5667.007324	324.265961
505.436127	-61.194416	5313.444336	238.796890
505.869629	-21.459435	6414.112305	218.523758
506.303162	-28.907547	9958.358398	251.649246
506.736603	-0.609300	15218.768555	187.359604
507.169983	-35.860115	18692.531250	239.291122
507.603363	-34.370132	25348.076172	217.040039
508.036621	-47.780804	41416.300781	197.254852
508.469940	-43.807152	54846.890625	181.421738
508.903107	-27.914564	54683.394531	162.614746
509.336304	-42.813511	45111.261719	166.079880
509.769379	-29.404383	39312.242188	202.696396
510.202484	-27.418011	36481.613281	195.275772
510.635529	-25.928244	28782.724609	194.780930
511.068481	-33.377193	21266.679688	174.988556
511.501434	-42.813511	16969.224609	207.642990
511.934265	7.331630	13645.560547	184.390884
512.367126	-26.424784	10057.960938	188.349411
512.799927	-49.767731	7274.981445	189.833557
513.232605	-56.722782	5892.222168	212.588913
513.665344	-29.900951	5035.637207	199.728149
514.097961	-14.508569	4328.280762	368.190491
514.530579	-46.290653	3907.660645	841.581482
514.963135	-18.976849	3971.496094	1780.000977
515.395691	-7.062144	4184.952637	2557.761963
515.828064	-26.921328	4258.525879	2786.666504
516.260498	-21.955801	3997.964844	2092.429199
516.692871	-32.880459	3600.239014	1276.713135
517.125183	-4.083810	3383.218262	847.459351
517.557373	-35.363632	3357.068604	625.212952
517.989624	-36.356739	3180.975830	514.551819
518.421753	-24.935175	2992.637695	351.414063
518.853943	-55.232265	2877.071289	253.626266
519.286072	-28.411121	3049.416016	252.143646
519.718018	-35.860115	3268.584961	191.317947
520.150024	-56.722782	3631.543945	154.694611
520.581909	-62.685085	5117.551270	142.811951
521.013855	-61.194553	6680.471680	151.229095
521.445679	-52.251621	8069.373047	137.365067
521.877502	-21.459435	7851.199707	156.179581
522.309204	-41.323353	7240.953613	146.772903
522.740906	-17.983898	6241.783691	172.514008
523.172546	-45.793808	5572.887695	174.493805
523.604187	-35.363361	5418.969727	159.644821
524.035767	-51.754860	4900.704590	147.268158
524.467224	-20.466171	4238.250977	131.917419
524.898682	-41.820293	3595.494873	128.450729
525.330078	-37.846775	4507.651855	139.345612
525.761475	-51.258106	5635.797852	136.374420
526.192749	-69.144493	5835.492188	116.067436
526.624023	-26.424784	4532.110840	200.222687
527.055237	-31.887272	3792.660156	179.442413
527.486389	-30.893969	3618.263916	169.544540
527.917542	-47.780804	4112.745117	153.209076
528.348572	-44.303711	4883.357910	166.574692
528.779663	-41.820293	5168.542480	173.503784
529.210571	-68.647858	4636.940918	144.297470
529.641541	-63.678658	4048.048096	163.110123
530.072388	-20.962936	4212.783203	172.514008
530.503235	-32.880459	4135.403809	173.504044
530.934082	-17.983765	3896.308105	132.907852
531.364746	-24.438513	3693.176270	160.139679
531.795532	-52.251621	3572.721436	158.654526
532.226135	-23.445469	3618.738037	137.859970
532.656738	-17.983765	3950.222168	164.594879
533.087280	-16.494370	4279.740234	190.823074
533.517822	-0.609300	5541.187988	145.287720
533.948242	-34.370403	7590.474609	178.947708
534.378662	-36.853638	11038.770508	201.707092
534.809082	-37.846775	14863.407227	165.089706
535.239319	5.346700	18577.978516	186.864960
535.669617	-28.411121	18666.734375	157.169632
536.099792	-29.900951	15815.380859	165.089706
536.529968	-31.390551	11710.254883	172.018967
536.960083	-16.494370	10661.377930	195.275772
537.390137	-29.404383	10869.010742	149.743469
537.820190	-30.893969	9898.834961	161.129929
538.250183	-13.019128	7771.525391	189.833832
538.680115	-17.983765	7760.532227	189.338669
539.109985	-34.370403	9502.738281	199.728424
539.539795	-62.685085	9967.374023	165.584793
539.969543	-26.921328	8025.950195	156.179581
540.399292	-48.277664	6035.323730	209.621674
540.828979	-15.004877	5508.079590	167.069504
541.258606	-22.452578	5388.629395	197.749405
541.688171	1.872406	5096.493164	202.201614
542.117737	-17.487564	4834.585938	190.823074
542.547302	-25.431707	4906.798340	214.072479
542.976685	-41.323353	5526.733887	233.852798
543.406128	-36.356739	6072.001465	235.336121
543.835388	-62.685085	6944.887207	246.706467
544.264771	-29.404112	8898.119141	219.018417
544.693970	-34.867016	10785.184570	266.970093
545.123230	-7.062144	13698.974609	299.575775
545.552307	-25.431707	30627.328125	573.102173
545.981506	-12.522700	51963.039063	890.060120
546.410583	-47.780804	59849.878906	1020.640442
546.839539	-7.558525	48011.894531	875.373108
547.268555	2.865140	34790.742188	689.066895
547.697449	-16.990829	34647.136719	575.069580
548.126282	-29.900682	37395.796875	542.111328
548.555054	-42.813511	34544.734375	596.704712
548.983887	-22.452309	24874.560547	609.485840
549.412598	-40.330158	16042.839844	662.550049
549.841309	-26.921463	12218.702148	711.155823
550.269958	-25.431707	10350.527344	772.967224
550.698486	-54.735619	9592.711914	864.110901
551.127075	-50.761494	11492.083984	999.138123
551.555481	-26.424784	15560.616211	1017.708496
551.983948	-32.880459	18422.332031	1113.417725
552.412292	-57.219852	18064.703125	1236.288452
552.840698	5.842972	15117.774414	1236.775513
553.268860	-29.404383	12482.604492	1348.741943
553.697205	-38.343414	10642.528320	1402.232788
554.125366	-34.867016	9547.505859	1408.066284
554.553467	-38.840061	8257.073242	1397.858032
554.981628	-38.840195	6706.798828	1472.687012
555.409607	-1.601823	5824.329102	1640.547852
555.837646	-66.660156	5378.358398	1758.226929
556.265564	-73.617218	5299.896484	1960.259766
556.693481	-38.840195	5209.226074	2152.175293
557.121338	-38.343414	4894.141602	2398.438965
557.549133	-26.921328	4630.832520	2744.566895
557.976929	-37.350140	4356.547363	2994.974121
558.404602	-11.033444	4495.891602	3393.625488
558.832275	-39.833500	5258.775879	3699.287842
559.259888	-44.303711	5555.173828	3987.517334
559.687439	-30.893969	5192.861328	4336.711914
560.114929	-27.914564	4378.684570	4510.424316
560.542419	-17.983898	4160.888672	4677.293945
560.969788	-63.678658	4230.234375	4771.196777
561.397156	-41.820293	4050.882813	4857.049316
561.824524	-14.508569	3659.993896	4932.996582
562.251770	-38.840061	3397.479004	4898.311523
562.679016	-9.047559	3388.922607	4833.128906
563.106140	-16.494370	3356.592529	4909.093750
563.533264	-36.853638	3472.551758	4863.145508
563.960327	-24.438513	3629.646484	4914.717773
564.387329	-49.767731	4260.411621	4967.204102
564.814331	-51.754860	4550.921875	5092.231934
565.241272	-46.290653	5057.642578	5384.377441
565.668213	-27.914564	5407.767578	5783.340820
566.094971	-34.370132	5935.449219	6428.412598
566.521790	-60.697578	9846.503906	7648.206055
566.948425	-38.343685	17126.279297	9173.508789
567.375183	-38.343685	20540.794922	11311.130859
567.801819	-38.840195	19234.771484	15693.892578
568.228394	-37.846642	20860.664063	23612.300781
568.654846	-71.629478	25826.513672	33305.183594
569.081421	-37.846775	27317.761719	38708.800781
569.507874	-41.820023	25281.662109	36140.515625
569.934265	-35.363632	24748.082031	28274.109375
570.360596	5.842972	26349.777344	20663.417969
570.786865	-48.277664	26874.431641	16098.434570
571.213074	-50.761494	27523.533203	13167.740234
571.639282	-15.004877	25982.548828	11213.222656
572.065430	-8.054775	21722.187500	9512.641602
572.491516	-48.277664	17818.990234	8178.048828
572.917603	-17.487295	14345.667969	7211.006836
573.343567	-28.411121	11302.685547	6511.701172
573.769531	-7.062144	8857.685547	6089.591797
574.195435	1.872406	7012.633301	5931.681641
574.621277	-39.833500	5655.828613	5868.461426
575.047119	-52.251621	4894.609375	5807.534180
575.472839	9.316763	5079.175781	5841.489746
575.898560	-17.487564	6931.980469	5979.076172
576.324158	-40.330158	12325.818359	6088.663574
576.749817	-39.833500	18583.660156	6259.813477
577.175293	-25.431707	20826.042969	6421.006836
577.600830	-19.473331	18025.789063	6636.530762
578.026306	-39.833500	15066.831055	6848.918945
578.451721	-30.397390	18020.982422	7160.395508
578.877136	-33.377060	22854.132813	7416.011719
579.302429	-43.310192	23523.724609	7734.370117
579.727661	-21.956072	19045.404297	8090.803711
580.152832	-17.487295	13981.748047	8517.813477
580.578064	-55.729324	11715.603516	8793.104492
581.003113	-57.716389	10258.769531	9389.578125
581.428223	-34.867016	8411.691406	9905.551758
581.853271	9.316763	6484.918457	10624.976563
582.278198	-18.976849	4862.257813	11178.786133
582.703125	-21.459435	3908.133545	12047.405273
583.127930	-28.411121	3302.369873	12712.395508
583.552795	-21.955801	2925.320557	13841.018555
583.977539	-52.251621	2726.911133	14836.550781
584.402283	-26.424784	2714.467041	16169.403320
584.826965	-37.350140	2684.305908	17697.388672
585.251587	-39.336712	2745.574463	19253.970703
585.676208	-42.316967	2858.911865	21002.208984
586.100647	-51.257973	3006.954834	23025.347656
586.525208	-34.867016	3447.850586	24557.058594
586.949524	-23.941988	4124.547363	25385.664063
587.373962	-11.529859	5688.430664	23856.673828
587.798218	-18.480371	9968.276367	20263.955078
588.222534	-31.390551	19074.267578	14771.491211
588.646729	-30.893969	29019.048828	9788.693359
589.070984	-60.200748	36952.542969	6490.421387
589.495117	-17.487295	42743.632813	4576.731445
589.919128	-41.323624	48912.738281	3661.365723
590.343201	-50.761494	51940.589844	3215.216797
590.767151	-38.343414	50001.589844	3820.543213
591.191101	-47.780804	44903.910156	5743.782715
591.614990	-16.494370	40115.519531	9209.317383
592.038818	-57.219852	35463.332031	13402.996094
592.462524	-33.873661	31184.056641	17333.994141
592.886292	-19.969816	26731.458984	20391.388672
593.310059	-37.350002	22905.634766	22348.638672
593.733582	-34.370132	19796.060547	23348.681641
594.157227	-56.226120	17264.060547	23728.292969
594.580750	-39.336845	15325.875977	23812.994141
595.004272	-49.767731	13776.650391	23580.996094
595.427673	-49.271130	12631.717773	23189.626953
595.851074	-45.297104	11697.324219	22497.701172
596.274353	-29.404112	11219.978516	21917.115234
596.697632	-68.647728	10826.429688	20920.669922
597.120911	-16.494370	10368.512695	20039.796875
597.544067	-23.941988	9582.767578	19184.429688
597.967224	-45.297104	8876.768555	18587.113281
598.390320	-30.397390	8610.750000	17783.962891
598.813354	-66.163139	8588.899414	17098.234375
599.236328	-23.445469	8326.878906	16512.285156
599.659241	-55.729324	7467.032227	15788.594727
600.082153	-48.277393	6855.887695	15308.274414
600.505005	-29.404383	6401.148926	14693.666992
600.927795	-27.417742	6052.968750	14068.985352
601.350525	-34.370403	5763.379395	13607.098633
601.773254	7.331900	5457.234375	12920.261719
602.195862	-21.459435	5606.909180	12478.118164
602.618408	-30.893969	5532.328613	12074.103516
603.040955	0.879790	5404.500977	11676.764648
603.463440	-54.238834	5027.677246	11239.606445
603.885925	-29.404383	4772.653320	10871.205078
604.308350	-25.431707	4623.784180	10553.143555
604.730652	-34.370403	4443.657715	10157.450195
605.152893	-41.323624	4235.420898	9747.613281
605.575195	-26.424784	4022.064453	9558.761719
605.997375	-13.019128	3773.243896	9261.880859
606.419495	-68.647858	3664.260986	8977.083008
606.841553	-20.466442	3466.376953	8626.630859
607.263672	-14.508703	3413.638916	8394.321289
607.685608	-25.928244	3441.198486	8146.993652
608.107605	-10.537169	3393.200439	7862.138672
608.529480	-14.012130	3394.626953	7663.793457
608.951294	-23.941988	3580.313232	7445.404297
609.373108	3.857452	4813.007324	7348.479492
609.794800	-24.438513	12150.665039	7014.427246
610.216553	-2.594633	21144.755859	6874.750977
610.638123	-33.873661	25002.404297	6869.677734
611.059753	-20.466442	19569.845703	6566.733887
611.481262	-22.949089	13732.518555	6464.047852
611.902832	-43.310192	11669.674805	6172.644043
612.324219	-26.424784	10794.151367	6100.266113
612.745605	-35.860115	9571.919922	5921.922363
613.166931	-48.774395	7340.715332	5780.547852
613.588196	-25.431572	5370.888184	5716.783691
614.009460	-45.793941	4338.175293	5577.034180
614.430664	-43.310192	3987.567139	5573.770996
614.851807	-28.907547	3871.706787	6181.920898
615.272827	-30.397390	3791.713379	7537.209473
615.693909	-38.343414	3716.398193	9666.320313
616.114929	-20.962666	3677.534424	11236.029297
616.535889	-9.544091	3566.078125	11037.829102
616.956787	-20.962936	3393.200928	9371.472656
617.377563	-25.928244	3187.167725	7346.181641
617.798340	-38.343414	3252.401855	6234.781250
618.219055	-44.303711	3315.690674	5691.640137
618.639832	-6.565767	3428.369873	5306.854980
619.060364	-20.962936	3607.829102	4953.615723
619.481018	-21.955801	3858.930664	4573.441406
619.901611	-26.424784	3888.265869	4261.776367
620.322083	-37.846775	4969.596191	4048.943848
620.742493	-50.761494	7353.122559	3879.700439
621.162842	-33.873661	8665.814453	3778.404053
621.583191	-42.316967	8119.178711	3675.588379
622.003418	-67.156906	5869.905273	3569.824463
622.423706	-47.780937	5043.128906	3533.753906
622.843872	-38.343414	4747.776855	3384.118896
623.264038	-52.748386	5810.374512	3296.134033
623.684143	-34.867016	8038.294434	3262.347656
624.104126	-30.397390	8920.374023	3156.628906
624.524170	-21.459435	8407.588867	3080.364746
624.944031	-40.826958	6817.131836	3010.722168
625.364014	-35.363632	7545.058105	3001.655518
625.783752	-13.019128	8623.493164	2921.926758
626.203552	-28.907547	8917.194336	2899.954102
626.623230	-35.860115	7261.647461	2838.786133
627.042969	-16.494370	5762.449219	2767.532227
627.462585	-15.005148	5660.020996	2641.153320
627.882141	6.339106	5731.729492	2656.959473
628.301697	-41.323624	5241.015137	2606.654785
628.721130	-38.840061	4362.199707	2573.583496
629.140625	-11.529859	3830.060791	2541.938232
629.559998	-25.927973	3675.638428	2419.089355
629.979309	-52.251888	5982.377930	2403.721680
630.398560	-45.793941	8723.130859	2387.871094
630.817810	-45.793808	9832.066406	2388.351074
631.237000	-28.411121	7842.959961	2369.134766
631.656067	-15.501595	5685.169434	2283.569336
632.075195	-18.976849	5041.255371	2211.881104
632.494202	-4.083810	4795.178223	2184.440430
632.913208	-32.383865	4298.593262	2160.363281
633.332092	-21.459435	3527.158447	2147.358398
633.750977	-5.076257	2936.304443	2076.039795
634.169739	-33.377060	2715.902588	2025.405518
634.588562	-38.343685	2542.468506	2008.520630
635.007263	-17.983765	2282.177490	2024.923218
635.425964	-11.033444	2000.369263	1974.258179
635.844543	-38.343414	1886.418213	1957.363647
636.263123	-36.356739	1834.219238	1958.328857
636.681641	-33.873661	1814.394287	1941.913330
637.100037	-44.800404	1992.648804	1872.354248
637.518494	-30.893969	2590.890869	1800.317993
637.936829	-52.748386	2977.841309	1870.904175
638.355164	-26.921328	2834.533936	1822.080688
638.773438	-39.833500	2316.318115	1812.892700
639.191650	-33.873661	2098.263428	1785.322632
639.609863	-41.323353	1997.956299	1735.963623
640.027893	-87.533714	1946.310059	1661.383911
640.445984	-44.800404	1996.026367	1704.977905
640.863953	-50.264473	2543.906738	1687.058960
641.281921	-20.962936	3152.390381	1603.707153
641.699829	-41.323624	3080.415283	1620.190430
642.117676	-25.928244	2440.267090	1591.584839
642.535461	-19.969952	2094.889893	1540.165527
642.953247	-40.826820	2080.429199	1606.131226
643.370972	-8.551435	2187.380371	1525.121094
643.788635	-23.941988	2172.453369	1479.485718
644.206177	-33.377060	2075.126465	1512.986450
644.623718	-26.424784	2060.662354	1536.768555
645.041260	-60.697308	2123.803711	1466.858643
645.458618	-22.948820	2236.957031	1451.314453
645.876099	-33.873798	2321.605469	1471.229614
646.293396	-21.955801	2147.409668	1439.168823
646.710693	-52.251888	2056.322266	1399.802490
647.127991	-42.813511	1885.935181	1401.747192
647.545166	2.368707	1846.788696	1395.427002
647.962341	-6.069394	1694.374878	1372.088501
648.379333	-7.062144	1672.578247	1363.820801
648.796448	-29.404383	1614.424561	1303.488647
649.213379	-25.928244	1590.665649	1267.461182
649.630310	-57.219582	1498.959717	1272.330811
650.047180	-20.466442	1438.734375	1218.260498
650.463989	-66.660156	1382.837524	1266.487305
650.880859	-27.418011	1394.992554	1215.336914
651.297546	-67.157043	1360.953857	1199.253784
651.714233	-41.820293	1298.186035	1180.241821
652.130859	-34.370132	1390.130737	1172.928345
652.547485	-34.867016	1505.270996	1138.301147
652.963928	-14.508569	1537.305054	1146.105713
653.380432	-36.853367	1569.325928	1129.519653
653.796814	-50.761494	1418.810547	1127.080200
654.213196	-50.264473	1343.442627	1168.539917
654.629578	-38.343414	1314.247803	1168.052246
655.045837	-43.310463	1298.672607	1168.052246
655.462036	-25.928244	1361.926514	1161.225098
655.878174	-36.356739	1335.171753	1141.715820
656.294312	-22.948820	1286.502319	1149.520264
656.710327	-38.343414	1182.243286	1123.664795
657.126404	-21.955801	1227.570190	1124.152466
657.542358	-56.722782	1232.929810	1117.809692
657.958252	-38.840195	1366.790405	1076.809448
658.374084	-59.703922	1513.038330	1081.203369
658.789917	-34.867016	1673.547119	1092.431030
659.205688	-7.062144	1751.503052	1068.997314
659.621338	-30.893969	1669.671387	1052.881714
660.037048	-48.277664	1587.756348	1048.486084
660.452637	-24.935040	1584.846558	996.205566
660.868164	-2.098428	1476.137573	985.451172
661.283691	-43.310463	1348.793579	937.527100
661.699158	-37.846775	1298.185791	931.656799
662.114502	-21.459435	1286.502319	933.124573
662.529846	-70.138588	1155.911987	901.807861
662.945129	-7.062144	1186.143921	850.887939
663.360413	-37.350002	1133.473877	883.696167
663.775635	-14.012130	1152.498047	839.621582
664.190674	-43.807152	1131.034912	873.414673
664.605835	-52.251621	1102.244873	901.318054
665.020813	-41.820293	1120.301025	876.841980
665.435791	-33.873661	1148.595947	878.800354
665.850769	-24.438513	1264.103638	873.414673
666.265625	7.828021	1358.521851	831.293457
666.680420	-43.806885	1458.166626	885.654297
667.095215	-44.800404	1450.394409	900.339233
667.509949	-7.558525	1513.523438	882.227417
667.924622	-41.323353	1664.342285	871.945679
668.339233	-72.623207	1926.029175	915.999878
668.753784	-50.761494	2586.576416	886.143738
669.168335	-19.473331	3605.931641	892.507690
669.582825	-35.363632	6842.970215	930.189026
669.997192	-15.501326	13713.541016	932.145874
670.411560	-26.424784	22678.542969	933.124268
670.825867	-17.983765	29844.330078	933.613647
671.240173	-23.445333	31025.646484	938.994995
671.654358	-20.466442	28184.742188	939.484009
672.068481	-42.316967	23528.572266	915.510437
672.482605	-26.921328	20148.849609	942.908142
672.896667	-44.800674	17777.453125	914.042297
673.310669	-43.310192	15217.889648	863.621399
673.724609	-38.343414	12737.714844	929.699951
674.138489	-15.501595	10158.398438	857.254822
674.552307	-54.735619	7717.923828	865.579834
674.966064	-38.343414	6046.468262	819.043945
675.379822	-54.238834	4966.316895	830.313660
675.793579	-18.976849	4208.538574	865.090576
676.207153	-36.853367	3663.786377	802.871704
676.620789	-26.424784	3220.980957	766.592285
677.034241	-41.323624	2914.812988	801.401245
677.447754	-43.310192	2638.808105	744.521118
677.861206	-23.445469	2457.068115	746.483459
678.274597	-39.833229	2373.028809	704.284668
678.687866	-38.343414	2170.527344	661.076538
679.101135	-64.672379	2131.993896	645.849243
679.514404	-38.343685	1998.921753	630.617981
679.927551	-46.290653	1939.067505	642.410339
680.340698	-55.729324	1857.423218	614.892395
680.753723	-24.935040	1798.434204	576.053101
681.166748	-22.452578	1802.303345	604.078796
681.579712	-26.921328	1969.964966	563.265503
681.992615	-23.941988	2076.572266	568.676147
682.405457	-48.277393	2096.817139	542.111572
682.818298	-48.774395	2078.982666	523.411499
683.231018	-36.357010	2152.226074	484.025818
683.643738	-21.955801	2174.861328	514.551575
684.056335	-52.748520	1961.759399	448.558105
684.468994	-21.955801	1753.439087	447.572388
684.881531	-39.833500	1644.476196	421.451385
685.293945	-47.780937	1597.939819	439.195007
685.706482	-35.860115	1480.508179	440.180603
686.118774	-51.257973	1423.670288	413.563721
686.531128	-55.232265	1320.574585	382.496490
686.943481	-35.860115	1260.694946	413.070618
687.355713	-28.907547	1290.396973	409.619415
687.767883	-28.907547	1314.734375	375.590607
688.179932	-23.941988	1377.002441	384.469391
688.592041	-17.983765	1323.980591	385.455536
689.004089	-9.047559	1255.337524	358.322601
689.416016	-35.363632	1213.926392	371.643677
689.827881	-18.480371	1217.824951	306.983917
690.239868	-32.383865	1185.655884	360.296234
690.651611	-12.522700	1319.600952	377.563690
691.063354	-10.040493	1330.306396	303.033203
691.475098	-40.826820	1359.494873	318.835052
691.886719	-33.873798	1206.128906	270.429108
692.298340	-9.047829	1127.131958	333.152222
692.709900	-7.062144	1131.034912	299.576019
693.121460	-34.867016	1092.482788	263.510895
693.532837	-52.251621	1066.607300	274.876068
693.944214	-26.921463	1139.816162	289.697113
694.355652	-36.356739	1136.401123	246.212021
694.766846	-13.019263	1112.493530	302.539490
695.178101	-33.873661	1137.864746	315.378723
695.589294	-4.083675	1065.142334	291.672913
696.000366	-36.356739	1071.490234	286.733276
696.411438	-35.860115	1070.025146	265.981537
696.822510	-16.494370	1073.442993	274.382385
697.233459	-26.921463	1014.828308	287.227112
697.644409	-41.820293	1027.043579	228.908051
698.055298	-30.397390	1021.180420	250.166580
698.466064	-22.452578	1115.421265	291.672913
698.876831	-58.213333	1215.875610	264.004913
699.287537	-38.840195	1232.929565	254.120636
699.698181	-38.840195	1201.742065	276.852325
700.108826	-46.290653	1217.824951	252.143646
700.519348	-43.310192	1295.751831	240.279816
700.929810	-28.411121	1258.259766	209.621414
701.340271	-21.459435	1173.467529	220.007187
701.750732	-14.012130	1168.103638	224.952393
702.161011	-15.004877	1093.947144	242.751663
702.571350	-22.949089	1050.491455	205.169479
702.981567	-52.748520	949.318237	184.390884
703.391724	-47.780804	908.221741	215.061584
703.801880	-42.813511	869.549011	215.061859
704.211914	-39.833500	818.115906	225.941330
704.621948	-31.390551	740.158081	228.908051
705.031921	-36.853638	756.835632	208.631943
705.441895	-23.941988	750.949829	215.556534
705.851746	-72.623207	707.772034	203.685699
706.261536	-33.873661	747.025818	209.621414
706.671265	-53.245289	716.606018	219.018692
707.081055	-49.271130	721.513367	226.930511
707.490662	-29.404383	725.929688	187.854248
707.900330	-47.780804	743.101379	188.349136
708.309814	-18.976849	764.192261	189.833557
708.719299	-35.363632	799.002197	234.347336
709.128784	-41.820023	716.606262	210.115875
709.538147	-49.271130	690.100281	211.599762
709.947510	-39.336712	745.554138	207.642731
710.356750	-20.962936	727.401489	185.875381
710.766052	-27.914564	667.022278	195.770355
711.175171	-59.206963	629.195862	174.988556
711.584290	-28.907547	594.298340	210.610596
711.993347	-54.238834	643.936096	209.621140
712.402405	-33.873661	654.743469	182.906326
712.811401	-35.860386	635.092590	180.432083
713.220276	-31.887136	628.213379	150.733887
713.629150	-15.998048	608.554626	166.079880
714.037964	-24.935175	635.583984	193.296890
714.446777	-35.860115	582.006165	167.069763
714.855408	-21.955801	627.230652	189.338669
715.264099	-20.466171	590.856750	163.109848
715.672668	-13.019128	575.613403	183.896210
716.081177	-33.377060	608.062988	183.401260
716.489746	-29.900951	704.827148	181.421738
716.898132	-9.047559	741.629578	197.749405
717.306519	-38.840195	729.364319	170.534119
717.714844	-42.813511	677.825928	176.968033
718.123108	-16.990829	605.605469	173.998535
718.531372	-41.820293	577.580383	139.840912
718.939514	-53.245289	576.596924	183.895935
719.347595	-47.284084	563.809387	132.907990
719.755676	-32.383865	539.211304	152.714157
720.163696	-31.887136	565.776489	135.384171
720.571716	-44.303711	590.856750	158.654800
720.979614	-59.703922	590.856750	114.581482
721.387451	-13.515695	569.711670	130.431854
721.795227	-33.377060	566.268738	129.441101
722.202942	-19.473331	539.703247	149.248520
722.610718	-42.316967	500.819305	137.364792
723.018311	-26.424784	493.926361	143.306946
723.425903	-63.678658	483.092590	122.506981
723.833374	-58.710148	448.117249	124.983589
724.240906	-27.914564	518.049377	158.159668
724.648376	-32.383728	458.956604	153.704254
725.055725	-21.459435	497.372803	138.850449
725.463013	-45.297104	503.281281	130.926956
725.870300	-33.377060	465.853241	135.879364
726.277466	-16.990829	460.927399	144.297211
726.684631	-62.188236	456.985992	159.149948
727.091797	-56.722782	441.711060	143.802338
727.498779	-40.826820	443.682404	138.355286
727.905823	2.865005	422.489288	105.663795
728.312805	16.760183	450.088104	99.717941
728.719666	-33.377060	430.868561	114.581482
729.126526	-50.264744	388.467041	145.782959
729.533264	-51.258106	424.953979	80.390053
729.940063	-46.290653	423.474823	130.431854
730.346680	-22.948820	444.667664	134.393631
730.753357	-46.290653	397.837280	92.284859
731.159851	-4.580166	442.696869	121.516510
731.566406	-25.431707	419.531647	116.067703
731.972900	-30.893969	412.629761	127.955482
732.379272	-43.310192	428.897339	96.249283
732.785645	-26.424784	430.375824	129.441101
733.191895	-18.976849	427.418579	118.049232
733.598206	-11.529859	462.405151	92.780411
734.004333	-31.887136	439.739960	125.974281
734.410522	-27.417742	450.580963	140.335800
734.816528	-45.297104	405.233948	98.231453
735.222656	-18.976849	402.768494	129.936340
735.628662	-24.438782	405.233948	112.104454
736.034546	-67.157043	401.289368	97.240311
736.440430	-33.377060	405.727142	97.735954
736.846252	-51.258106	417.559845	99.717941
737.252014	-37.847046	403.261719	67.005348
737.657715	-49.271130	414.601715	134.888702
738.063354	-20.466442	474.227722	115.572350
738.468933	-47.284084	472.257019	115.076851
738.874512	-0.609300	481.122986	95.753891
739.280029	-42.813511	458.463806	92.780411
739.685486	-30.893969	481.615326	94.267303
740.090881	-18.976849	481.615051	135.879364
740.496216	-58.213333	453.044312	130.926956
740.901550	-33.377060	440.232605	112.104454
741.306702	-50.264473	446.638916	119.535095
741.711914	-48.277393	429.883087	113.590607
742.117004	1.376100	466.346252	113.095230
742.522095	-4.083675	457.478790	129.936340
742.927124	25.195030	467.824097	86.337814
743.332031	-26.424784	451.566101	92.284859
743.737000	-51.754860	468.316559	108.636368
744.141785	-52.251621	458.956848	82.372620
744.546631	-47.284084	478.660187	104.177589
744.951355	-32.880459	466.346252	82.868248
745.356079	-40.826820	456.000671	115.572350
745.760620	-47.284084	411.643494	89.806923
746.165283	-13.515425	399.316742	119.039772
746.569824	-16.990829	418.052948	53.618053
746.974243	-48.277664	416.573364	82.372620
747.378723	-13.515695	399.809967	93.771629
747.783020	0.879655	397.837280	109.132057
748.187378	-32.383865	417.066467	106.159241
748.591614	-17.487295	445.653412	109.131783
748.995850	-25.928244	419.531647	95.753891
749.399963	-51.754860	409.671692	96.249283
749.804077	-13.515695	397.344025	101.204529
750.208130	-54.735619	412.136658	110.618141
750.612122	-20.962936	432.840210	111.113541
751.016052	-21.459435	395.371796	100.709045
751.419922	-45.297375	372.189423	66.509720
751.823792	-50.264473	397.344299	90.798187
752.227478	-23.941988	445.160553	87.329010
752.631226	-32.880459	470.287079	88.320053
753.034851	-5.076257	436.783112	111.113541
753.438477	-31.390551	431.854523	60.064301
753.842102	-19.473331	397.837280	69.484230
754.245544	-77.096062	383.534973	37.747387
754.648987	-67.157043	370.215881	71.963013
755.052368	-17.487295	392.905945	77.415947
755.455750	-32.880459	424.953979	61.551605
755.859009	-48.277393	414.108887	67.997131
756.262268	-31.887136	407.206146	65.022278
756.665405	-26.921328	426.432526	54.609653
757.068542	-16.494370	430.868561	48.659000
757.471680	-27.418011	417.066742	104.672905
757.874634	-19.473331	446.146027	79.894402
758.277588	-43.806885	386.987610	64.030716
758.680420	-46.290653	426.432800	87.329010
759.083374	-50.761223	430.376099	68.988487
759.486084	-37.350140	381.068420	31.298723
759.888916	-33.873798	347.517975	63.039135
760.291504	-50.264744	344.557129	33.283054
760.694214	-43.807152	343.076141	82.372620
761.096802	-37.846775	324.318085	64.526497
761.499268	-19.969952	360.841827	41.219307
761.901733	-34.370132	336.659668	40.227215
762.304199	-50.264473	343.076141	50.642616
762.706543	-33.377060	331.723328	61.551872
763.108826	-24.438782	368.736023	66.509720
763.511108	-38.840195	305.554688	77.911621
763.913208	-40.826820	355.414063	56.593208
764.315369	-43.310463	338.634003	49.154778
764.717529	-17.487295	355.414063	61.055660
765.119568	-20.466442	372.189423	45.683182
765.521545	-15.501326	348.998596	85.346474
765.923462	-20.962936	540.687256	151.724030
766.325317	-42.317101	706.299500	234.841339
766.727112	-15.005148	822.036133	280.311066
767.128845	-38.840195	691.082397	294.636749
767.530518	-37.350140	550.035522	250.166321
767.932251	-42.813511	474.720093	165.089966
768.333862	-39.833500	471.272186	115.076851
768.735413	-55.232265	421.503418	73.450287
769.136841	-36.853367	528.877075	94.762566
769.538269	-26.921463	570.695251	178.452713
769.939636	-49.767731	674.879578	205.169754
770.341003	-28.907547	596.756592	215.062119
770.742249	-17.487295	485.554962	179.442413
771.143433	-52.251621	447.624390	143.802078
771.544617	-27.914293	433.825897	76.424454
771.945740	-42.316967	419.531647	65.517914
772.346802	-32.880459	377.122375	86.337547
772.747803	-27.418011	439.739960	34.274990
773.148682	-59.703789	381.562073	50.146584
773.549622	-57.716660	423.967896	71.467293
773.950439	-44.303711	451.073517	35.267181
774.351196	-16.990829	461.912659	20.383919
774.751892	-5.076527	447.131500	49.650684
775.152588	-55.232536	397.837280	31.298723
775.553162	-8.551435	361.828613	66.509453
775.953735	-19.969952	318.887421	3.015634
776.354309	-13.019128	333.697784	43.699265
776.754639	-37.350140	315.430817	61.551605
777.155090	-36.853638	276.904755	55.105515
777.555420	-29.404383	338.140289	87.824463
777.955750	-49.271130	315.430817	49.650684
778.355896	-41.820023	282.833435	50.642483
778.756104	-54.238834	338.140564	39.731503
779.156189	-28.907547	330.242279	48.162819
779.556274	-13.019128	362.815399	42.211388
779.956299	-60.200748	386.000916	-2.443989
780.356201	-70.635368	367.255859	9.963345
780.756165	-41.820293	374.162628	43.203308
781.156006	-21.459435	318.887177	35.763203
781.555786	-30.893969	310.986725	38.243389
781.955505	-35.860115	349.985565	46.675182
782.355225	-44.800404	312.468231	32.290695
782.754761	-1.602093	349.491943	45.187241
783.154358	-2.594633	309.505219	33.283054
783.553894	-23.445469	304.073029	27.329861
783.953369	-42.316967	354.920502	17.406954
784.352783	-50.761494	388.960358	50.642483
784.752075	-26.921328	342.582458	36.259224
785.151367	-46.290520	387.480927	28.818251
785.550598	-20.466442	368.242554	25.345331
785.949768	-64.672379	371.695984	14.925900
786.348877	-51.754860	332.710571	20.384190
786.747986	-25.431707	342.089325	26.337807
787.147034	-48.277664	332.710297	41.715282
787.545959	-35.860115	341.595642	50.642483
787.944885	-32.383865	335.672485	57.089054
788.343750	0.383610	345.050262	26.833771
788.742493	-31.887272	338.634277	1.030289
789.141235	-53.742058	313.455780	60.064301
789.539917	-35.363632	295.182648	27.329861
789.938538	-44.303711	268.504761	14.429704
790.337158	-53.742058	297.158539	-21.805378
790.735718	-15.998048	301.109619	38.243389
791.134094	-24.438513	268.010498	40.227486
791.532532	-43.310463	252.195801	23.857128
791.930847	-19.969952	264.057343	34.274990
792.329224	-55.729053	273.445831	8.474753
792.727417	-53.245289	225.004837	38.739388
793.125610	-17.983898	240.331985	46.178982
793.523682	-39.336845	232.915894	46.178982
793.921753	-28.907547	238.849060	29.810396
794.319824	-54.735619	223.026627	59.072525
794.717773	-42.813782	215.608734	47.171112
795.115723	-39.833500	199.285812	30.306601
795.513550	-19.969816	219.564987	35.267048
795.911377	-34.867016	214.124939	41.715282
796.309082	-13.515695	194.338531	24.353245
796.706787	-6.565497	225.499161	76.424728
797.104370	-20.466442	202.748596	30.802393
797.501953	-65.666260	231.432770	15.918280
797.899536	-27.418011	235.388290	60.559849
798.296936	-29.900951	267.022491	8.971000
798.694397	11.797918	228.466171	8.474753
799.091736	-23.941988	212.146652	55.105515
799.489014	-15.998048	185.432678	21.872482
799.886230	-43.310463	206.211197	61.551605
800.283447	-30.397390	204.727173	47.171112
800.680542	-15.997778	213.135803	57.584896
801.077637	-50.264473	219.565262	59.568352
801.474670	-31.390551	172.071182	29.314325
801.871643	-52.251621	224.015884	44.195217
802.268555	-61.691391	191.369888	67.501381
802.665405	-35.363632	250.218475	46.178982
803.062256	-6.565497	215.608734	36.259224
803.458923	-51.258106	226.982971	34.771019
803.855652	-21.955801	207.200424	60.559849
804.252258	-30.397390	291.725037	43.203041
804.648804	-56.226120	242.309631	49.154778
805.045410	-23.941988	250.218750	37.251247
805.441833	-24.935175	296.171021	61.551605
805.838257	-41.820293	289.749207	82.868248
806.234619	-45.793808	271.469696	47.666897
806.630859	-17.983765	299.627869	84.355255
807.027100	-37.846775	294.688873	90.302490
807.423279	-33.873798	259.609314	63.534927
807.819458	-59.206963	263.563049	43.699265
808.215515	-61.691257	279.375122	65.022278
808.611572	-28.907547	226.488098	75.928772
809.007507	-32.383865	231.432770	57.584896
809.403381	-33.873661	208.684387	56.097225
809.799194	-58.710148	196.317657	51.634132
810.195068	-0.609300	224.015884	79.398476
810.590759	-33.873661	215.114044	97.735954
810.986450	-53.742058	225.993759	70.971298
811.382080	-43.310192	243.792480	66.509720
811.777649	-21.955801	416.573914	105.663795
812.173157	-60.200615	757.816467	64.030716
812.568665	-17.983898	1103.708862	82.868248
812.964050	-23.445469	1183.218628	113.590607
813.359375	-48.277393	1084.672241	119.039772
813.754639	-30.893969	868.569946	127.460213
814.149841	-28.907547	640.988464	117.058273
814.545105	-28.411121	604.622070	153.704529
814.940186	-42.813511	518.541443	191.317947
815.335266	-22.452578	474.227448	175.483292
815.730347	-48.774395	377.615753	275.864197
816.125244	-55.232265	324.811890	330.190186
816.520203	-26.921328	276.904755	420.958344
816.914978	-49.271130	324.811890	637.005981
817.309753	-34.370403	482.107666	1121.713135
817.704468	-50.761494	1030.463501	1940.465088
818.099182	-17.487564	1822.131714	3090.377197
818.493774	-47.284084	2672.814209	4327.288574
818.888367	-39.833500	3442.148926	5377.842285
819.282898	-36.853367	3946.439209	6077.059570
819.677307	-24.438513	4431.890137	6412.211426
820.071716	-0.609300	3896.308105	6355.720703
820.466003	-40.826820	3073.739502	5921.457031
820.860291	-12.522700	2354.289307	5034.182129
821.254517	-40.330158	1946.792847	4141.489258
821.648743	-10.040493	1559.139038	3234.261963
822.042786	-32.383865	1236.827148	2611.926514
822.436890	-57.219582	902.838318	2132.906982
822.830872	-25.431707	613.961304	1637.639893
823.224792	-34.370403	467.823853	1369.656616
823.618774	-42.813511	395.865082	1084.620483
824.012512	-20.466442	283.821442	842.070923
824.406311	-27.914564	265.539673	631.109680
824.799988	-22.452309	256.644348	563.265503
825.193665	-34.867016	207.200424	454.470795
825.587280	-21.459435	238.849060	395.319489
825.980835	-35.860115	175.535782	348.452881
826.374329	-4.580166	179.494629	274.876068
826.767761	-50.761494	192.359634	214.072739
827.161194	-61.691257	204.727432	206.159012
827.554443	-48.277393	152.766388	195.276047
827.947754	-45.297104	218.575943	148.753571
828.340942	-15.004877	198.790985	145.782700
828.734131	-41.323624	156.232086	127.460213
829.127136	-44.303711	137.912491	131.917419
829.520264	-30.397390	161.182159	107.150238
829.913208	-51.258106	208.189651	87.824463
830.306152	-18.480371	184.938019	89.311348
830.699097	-18.976849	153.261444	87.824463
831.091797	-25.928244	133.455460	43.699265
831.484619	-39.833500	146.330322	46.178982
831.877319	1.375965	163.162079	61.055660
832.270020	-37.846775	166.132111	56.097225
832.662537	-28.411121	191.370148	21.872482
833.055054	-24.935175	175.040787	57.089054
833.447510	-10.537169	190.380661	29.810396
833.839966	-51.754860	202.254074	58.080727
834.232361	-31.887136	149.795990	26.337807
834.624634	-41.820293	148.805817	9.467241
835.016907	-21.955801	143.854462	36.755234
835.409058	-30.893969	147.815491	30.306601
835.801208	-42.813511	126.521812	15.422092
836.193298	-38.343414	160.687042	28.322168
836.585327	-50.264473	125.035843	16.910509
836.977295	-38.343414	134.941223	41.715549
837.369202	-57.716660	128.502869	1.526598
837.761047	-16.990829	122.559387	33.778957
838.152832	2.865140	147.815491	22.368616
838.544617	-6.069259	143.359055	5.000913
838.936218	-37.847046	137.912491	14.925900
839.327942	-24.935040	156.726974	-11.379328
839.719421	-57.716660	138.407669	10.459847
840.111023	-38.343685	143.854462	35.267181
840.502380	-39.833500	146.825424	15.918280
840.893860	-39.833500	151.776398	-7.904387
841.285217	-21.955801	163.657181	-13.861591
841.676453	-36.356739	146.330322	15.422092
842.067749	-57.219582	140.388321	32.786739
842.458862	-50.264473	152.766388	46.674911
842.849976	-33.873661	120.578011	12.444877
843.241028	-25.431707	175.040787	5.000643
843.632019	-3.587324	131.969666	24.353245
844.022949	-40.330158	161.182159	-4.925877
844.413879	-52.251621	172.566223	45.683182
844.804749	-51.258106	148.310577	-3.933163
845.195496	-26.424784	151.281067	-26.770756
845.586182	-34.370403	144.349442	-4.926012
845.976807	-25.928244	106.706955	32.290695
846.367432	-32.383865	150.786133	-16.840284
846.757996	-30.397390	131.474579	-9.393700
847.148499	-29.900951	141.873779	-10.386371
847.538879	-40.330158	169.596512	-29.253536
847.929260	-1.105492	155.242020	4.008349
848.319641	-16.494370	166.132111	-2.444259
848.709839	-22.452578	118.101227	-9.889965
849.100098	-41.820023	118.101494	3.015634
849.490234	-25.431572	129.493484	-1.947921
849.880310	-20.962936	104.725319	-30.246946
850.270325	-15.998048	160.687302	15.918280
850.660339	-48.774395	142.369049	3.015634
851.050171	-19.969952	145.339966	-5.422375
851.440125	-15.501326	173.061523	-35.709660
851.829895	-40.330158	108.688919	-27.763990
852.219604	-32.880459	97.788101	7.482248
852.609314	-34.867016	100.761337	29.810396
852.998901	8.820520	71.519608	-15.847236
853.388550	-53.245289	102.247757	-6.415113
853.778015	-40.330158	99.770226	-10.386371
854.167480	-28.411121	103.734283	6.489592
854.556885	-16.990829	109.679741	-16.343691
854.946228	-37.846775	140.388199	11.948659
855.335571	-40.826820	108.193359	-15.847236
855.724731	-46.290653	130.979080	-31.239969
856.113953	-28.907818	124.540695	-12.372167
856.503052	6.339106	143.854462	17.406954
856.892151	-50.761223	146.330048	-3.436813
857.281067	-37.846642	153.756760	-23.791424
857.670105	-15.004877	128.007736	-17.833487
858.058960	-82.066147	144.844849	-8.400640
858.447754	-45.297375	109.184334	7.978503
858.836609	-23.445469	104.725319	37.747116
859.225281	-57.219582	142.864197	11.452168
859.613892	-22.452309	131.474579	-3.933163
860.002502	-21.459435	136.922134	-0.955123
860.391052	-60.697578	127.512344	-6.911354
860.779541	-52.748386	147.320389	-0.955123
861.167969	-50.761223	146.330048	-21.308607
861.556335	-9.544091	95.805908	2.023038
861.944702	-46.290653	140.883484	-18.826300
862.332947	-50.761223	139.893295	-61.043755
862.721069	-38.343414	125.035843	29.314325
863.109253	-16.494370	131.474579	3.511927
863.497314	-23.941988	128.502869	7.482113
863.885376	-46.787365	165.142212	-23.791424
864.273315	-41.323353	164.647385	-3.933163
864.661255	-47.284084	160.687302	-30.743254
865.049072	-36.356739	127.512611	-31.239969
865.436890	-69.641670	130.979340	-11.379193
865.824707	-15.004877	151.281342	-19.819263
866.212280	-39.833500	156.232086	0.037524
866.599915	-41.820293	137.417313	-40.676350
866.987488	-38.840061	154.746841	-3.933163
867.375061	-35.363632	131.474579	-0.458797
867.762451	-12.522700	137.912491	0.037524
868.149841	-45.297104	124.540695	6.985855
868.537170	-49.271130	158.707047	8.474753
868.924438	-41.820293	141.873779	-15.350784
869.311707	-21.955801	116.119843	-9.889965
869.698853	11.797918	162.172134	-3.933163
870.085938	-32.383865	121.073326	-23.295042
870.472961	-19.969952	128.007736	-12.868592
870.859985	-2.594633	172.071182	11.452438
871.246887	-51.258106	113.642876	-29.253805
871.633789	0.383340	188.401352	-10.882780
872.020569	-39.336845	157.717026	-30.743254
872.407349	-6.069259	160.687302	-51.107609
872.794067	-15.004877	138.407669	-28.757107
873.180725	-27.914564	155.241760	-14.854472
873.567322	-11.529859	188.401352	5.000913
873.953796	-28.410851	153.261444	-7.904387
874.340332	-15.005148	199.286072	-23.791424
874.726624	-36.853638	189.886032	-3.436813
875.113037	4.354143	188.401627	-8.400640
875.499329	-35.860115	187.906723	-2.940466
875.885559	-40.826820	133.950668	10.459847
876.271729	-77.592903	168.111603	-29.253536
876.657898	-36.357010	147.815491	-36.702774
877.044006	-12.026278	162.666977	-15.847506
877.429932	-37.846775	170.586609	-5.422375
877.815918	-15.501326	142.369049	-0.955123
878.201782	-33.873798	171.081375	-34.716156
878.587585	-63.678658	192.359909	9.963345
878.973389	-49.767731	177.020248	-1.451317
879.359070	-58.213333	185.927612	-7.904387
879.744751	6.339106	174.051025	-48.126904
880.130310	-24.935040	170.586609	-46.636742
880.515930	-49.768002	188.401352	5.000643
880.901367	-20.466442	168.111862	-43.656269
881.286804	-40.330158	157.221863	-21.308876
881.672180	-34.370132	167.121994	-26.274212
882.057434	-28.907547	145.339966	-30.246946
882.442749	-22.949089	197.307053	-34.219677
882.827942	-32.880459	206.211456	-1.451317
883.213013	-22.452309	158.707047	-11.379193
883.598145	-50.264473	169.101440	-16.840284
883.983154	-56.722782	169.101715	1.526598
884.368042	-24.935175	174.050751	-42.166359
884.753052	-10.040493	159.697052	-18.826300
885.137817	-28.907547	164.152023	-23.295042
885.522644	-12.026278	167.617065	-22.798258
885.907349	-20.466442	168.111862	-55.081760
886.292053	-31.390551	215.114044	-29.750374
886.676636	-35.363632	158.212158	-6.911624
887.061157	-27.914564	198.296707	3.511927
887.445740	-62.685085	192.359909	-37.696175
887.830078	-15.501326	160.192184	-54.088196
888.214539	-25.928244	217.586884	-10.882780
888.598816	-15.998048	135.436295	13.437163
888.983093	-20.962936	160.192184	-35.709660
889.367249	-42.813511	179.494629	-65.515594
889.751465	-32.880459	168.606918	-19.819263
890.135498	-19.473331	214.619354	-38.689732
890.519531	3.857722	174.051025	-22.798529
890.903503	-78.090157	212.146393	-13.861591
891.287415	-47.284084	215.608734	-15.350784
891.671326	3.857722	181.473953	2.022903
892.055054	-9.047829	190.875534	-12.868592
892.438843	-56.722782	180.484299	-4.926012
892.822510	-32.880459	201.264481	-40.179554
893.206116	-30.893969	191.370148	-58.559494
893.589661	-23.941988	204.232391	-50.610859
893.973206	-32.880459	223.520996	6.489592
894.356628	-21.956072	218.081284	-25.777674
894.739990	-11.033444	225.993759	-19.322779
895.123352	-36.356739	216.597824	-27.763990
895.506592	-60.200615	235.882553	-22.301748
895.889832	-55.232536	212.146652	-22.798529
896.272949	-32.880459	215.114044	-63.527855
896.656067	-44.303711	208.684387	-32.729874
897.039063	-30.397390	221.543289	14.429568
897.422058	-45.793808	267.516510	-25.777674
897.804993	-44.800404	232.916153	-49.120499
898.187866	-67.157043	229.455063	6.985855
898.570618	-21.955801	240.331985	-1.947651
898.953369	-33.873661	211.652206	-61.540733
899.336121	-25.431707	242.803543	-23.791424
899.718689	-22.948820	190.380386	-15.351054
900.101257	-41.820023	247.252762	-39.186245
900.483704	-30.893969	250.713150	-23.295042
900.866211	-64.175789	204.727432	-33.723072
901.248596	-50.761494	245.769730	-14.358030
901.630920	-31.390551	212.146652	-30.743254
902.013184	-40.330158	219.070602	0.037794
902.395386	-27.418011	233.904968	-22.301748
902.777588	-13.019128	217.586884	-19.819263
903.159668	-45.793941	238.849060	-24.287947
903.541687	-24.935175	228.960480	-85.891953
903.923645	-5.076527	226.488098	-41.669682
904.305603	-16.494370	201.264755	-57.068935
904.687500	-45.297104	207.200424	-57.068935
905.069275	-21.459435	259.609314	-18.826300
905.451050	2.368707	309.999176	-11.379328
905.832642	-20.466442	354.920502	-27.267439
906.214294	-44.303711	306.542084	-41.172878
906.595825	-30.397390	289.255402	-34.219677
906.977417	-25.928244	298.640381	-23.791290
907.358826	-21.459435	247.252762	-11.379193
907.740234	-17.487295	240.826462	-26.770756
908.121582	-72.126274	207.695175	-5.918742
908.502869	-11.529859	181.968643	2.519203
908.884033	-60.697308	189.885773	0.037794
909.265198	-3.587594	182.463852	-37.199673
909.646301	-42.316967	220.059647	-34.219677
910.027344	-29.900951	225.499161	-25.281139
910.408325	-28.411121	238.848785	-29.750105
910.789246	-50.761494	279.375122	-10.882780
911.170105	-38.840195	297.652313	-46.636742
911.550903	-37.846775	321.355896	4.008214
911.931641	-28.907547	320.862305	-30.246677
912.312317	-29.900951	337.646851	-40.179554
912.692932	-38.840061	330.735779	-39.186108
913.073547	-25.928244	378.109161	-26.770756
913.453979	-64.672653	390.933044	-12.868728
913.834473	-35.363632	330.242279	17.406954
914.214783	-1.105492	312.468231	-22.302019
914.595154	-17.487295	368.242554	-53.591286
914.975464	-30.397390	356.400665	-55.578411
915.355652	-68.150826	392.412689	-11.875609
915.735840	-48.774395	346.530945	10.459847
916.115845	-57.219852	343.569519	-29.253536
916.495972	-45.297104	403.754639	-58.062546
916.875854	-44.800404	300.615906	0.037524
917.255859	-15.997778	338.140289	-22.798529
917.635620	-46.787365	340.114838	-8.897304
918.015503	-47.780937	325.305450	-57.565739
918.395203	-44.800404	333.204315	-18.826300
918.774902	-31.390551	292.219116	-3.436813
919.154480	-56.226120	320.862061	-62.534420
919.534058	-63.678658	322.343567	-9.393430
919.913574	-20.962936	334.191284	-19.322779
920.292969	-39.833500	324.811890	-4.429653
920.672363	-45.793808	311.974579	-4.926012
921.051636	-0.609300	296.170746	-3.436813
921.430969	-28.411121	244.781387	-39.682896
921.810181	-35.860115	188.401352	-48.623497
922.189331	-39.336845	248.735504	-28.757107
922.568420	-28.907547	237.365540	-47.133461
922.947388	-27.914564	218.575943	-0.955123
923.326416	-42.813511	178.504944	-10.386371
923.705261	-9.544091	157.717026	-23.791424
924.084106	-19.969816	187.411545	-21.805378
924.462891	-20.466442	143.359329	-58.559494
924.841675	-49.767731	176.030518	-32.233143
925.220337	-33.873661	143.359329	-36.703045
925.598938	-34.370132	143.359329	19.887634
925.977478	-35.860115	137.912491	-8.400640
926.355957	-31.390551	119.587364	-27.267439
926.734436	-33.377193	109.679741	-62.534149
927.112732	-28.411121	103.238823	-16.840284
927.491089	-56.226120	131.969666	-34.716427
927.869324	-23.941988	104.229874	-28.260548
928.247559	-47.284084	80.442352	-46.636742
928.625671	-48.774395	119.092171	-33.723072
929.003723	-39.833500	112.156601	-47.630180
929.381775	-12.026278	85.398773	-27.267303
929.759705	-48.774395	81.433777	-36.206146
930.137634	-26.921328	93.328247	-44.649788
930.515381	-23.941854	72.511169	-16.840284
930.893250	-54.735619	72.511169	-31.239969
931.270935	-24.438782	75.981209	-7.904387
931.648560	-21.459435	97.788101	-20.812380
932.026123	-55.729324	79.946701	-30.743389
932.403687	-47.284084	98.283875	-19.322779
932.781250	-17.487295	73.998299	-9.393700
933.158630	-17.983765	47.223442	-26.274212
933.536011	-13.515695	97.292595	-30.743389
933.913208	-18.976849	94.814995	-11.379193
934.290527	-51.258106	71.023880	-18.329689
934.667664	-29.900951	59.124844	-26.770756
935.044800	-32.383865	58.133053	-43.159580
935.421814	-27.418011	70.032280	-14.854202
935.798889	-12.522700	66.562035	-26.770756
936.175842	-20.466442	98.779236	-25.281139
936.552673	-71.629478	90.354782	-38.689461
936.929504	-40.330158	85.894379	-20.315887
937.306274	-43.310463	46.727379	-24.287947
937.683044	-38.343414	65.074593	-48.623768
938.059570	-44.800404	60.612301	-37.696175
938.436218	-19.969816	107.202377	-23.295042
938.812744	-42.316967	103.238823	-33.723072
939.189148	-70.138588	57.637215	-11.875609
939.565613	1.872406	46.727512	-26.770756
939.941956	-9.047829	17.955482	-8.897033
940.318237	-3.090976	28.870461	-6.911354
940.694458	-58.710148	15.474450	-8.400640
941.070557	-82.563164	22.917097	-11.875609
941.446655	-30.893969	26.390158	-30.743389
941.822693	0.879790	-7.355490	-29.253536
942.198669	-29.900682	55.653694	1.030154
942.574646	-73.617218	50.694809	-25.281139
942.950562	-60.697578	2.571573	-24.784473
943.326294	-16.494370	3.564296	-12.372167
943.702026	-18.977119	14.978394	-12.868592
944.077698	-40.826820	30.359079	-21.805378
944.453369	-51.754860	-12.319784	-25.777674
944.828918	-45.297375	8.527118	-22.798529
945.204468	-52.251888	61.603786	-39.186108
945.579834	-8.551435	24.405596	-45.643188
945.955261	-33.377060	16.467091	-29.750105
946.330627	-55.232536	33.335125	-8.400910
946.705811	-6.565767	9.023364	-42.166359
947.081055	-59.703922	30.855009	-36.206146
947.456177	-47.284084	4.060583	-21.308876
947.831238	-3.090976	-3.880923	-26.770756
948.206238	-20.466171	36.311562	-22.798529
948.581238	-21.955801	-2.391750	-32.233143
948.956116	-52.748520	0.586483	-16.840284
949.330933	-53.245152	3.068004	-59.553131
949.705811	-28.907818	34.823364	-37.696175
950.080505	-35.860115	50.198914	-24.287947
950.455139	2.368707	39.783703	-63.031273
950.829773	-28.410851	25.397818	-37.696175
951.204346	-11.033444	6.045826	-28.757107
951.578735	-58.710148	15.474450	-15.350784
951.953186	-38.343414	27.382343	-2.940466
952.327515	-90.019081	-16.787897	-36.206146
952.701843	-37.846775	0.089896	-9.889965
953.076172	-17.487295	-23.739033	-43.656269
953.450195	-25.928244	23.413221	-19.819263
953.824341	-27.417742	16.963135	-37.696175
954.198486	-37.846775	-22.746002	-54.584972
954.572449	-11.529859	37.799591	-55.578682
954.946350	-50.761223	15.970637	-3.933163
955.320251	-44.800404	34.823364	-15.847236
955.694092	-30.397390	21.924969	-41.669682
956.067871	-6.069259	13.489658	-28.757107
956.441589	-29.900951	39.287716	-17.336748
956.815125	-35.860115	-28.704575	-33.723206
957.188721	-17.983765	-20.759991	-13.365023
957.562256	-27.418011	13.985727	-26.274212
957.935730	-31.390551	21.428831	-43.159580
958.309021	-28.411121	7.534479	-24.784473
958.682373	-15.501595	18.947811	-26.770756
959.055664	-40.826958	16.466822	-46.636742
959.428955	-15.501595	52.678493	-35.709660
959.802063	12.294136	42.759815	-42.663036
960.175110	-47.780804	16.466822	-56.572266
960.548157	-38.343685	24.901707	-56.075470
960.921143	-44.303711	24.405596	-12.868592
961.294128	-25.431707	25.893921	-21.805378
961.666809	-50.264473	15.474450	-11.875609
962.039612	-9.047559	44.247547	-32.233143
962.412415	-31.390551	-14.305510	-12.868592
962.785095	-16.494370	12.001021	-27.267303
963.157715	-35.860115	12.001021	-40.676350
963.530151	-1.105492	61.604057	-46.140034
963.902649	-26.921328	21.428831	-69.987900
964.275146	-7.558525	20.932419	-48.623768
964.647522	-42.316967	42.759815	-54.584972
965.019714	-59.206963	23.413492	-46.636742
965.392029	-36.356739	21.428831	-31.239969
965.764160	-19.473331	-0.406290	-18.329823
966.136292	-16.494370	13.489658	-18.329689
966.508423	-54.735619	13.489658	-31.736555
966.880371	-47.284218	-27.711594	-35.213039
967.252319	-33.873661	12.497237	-48.126904
967.624207	-54.735619	-10.333989	-36.702774
967.996094	-42.813782	-3.384438	-67.999878
968.367737	-45.297104	-13.809207	-34.716156
968.739441	-39.336845	2.571573	-13.861591
969.111084	-36.356739	-1.895277	-3.436813
969.482666	-41.323353	22.917097	-41.669411
969.854248	-48.277664	22.917097	-20.315887
970.225586	-12.026278	0.586213	-24.287947
970.596985	-70.138588	7.534749	-31.239969
970.968323	-71.629478	-1.895277	-17.336748
971.339661	-11.529859	-22.249357	-6.415113
971.710754	-28.411121	-9.341185	-15.350784
972.081909	-26.921328	12.496967	-48.126904
972.453064	-20.466442	30.358809	-35.709660
972.824097	6.835370	29.366671	-25.281139
973.194946	-39.336845	60.612301	-23.791424
973.565918	-32.383865	21.924969	-48.623497
973.936768	-40.330158	22.917097	-25.777674
974.307556	-50.264744	2.571573	-22.301748
974.678284	-16.494370	6.045556	-27.267303
975.048828	-19.473331	2.571843	-42.663036
975.419495	-40.826958	-1.895412	-9.393700
975.790039	-49.271130	1.578969	-42.166088
976.160522	-31.887272	5.549285	-37.696175
976.530884	-41.820293	-8.348262	-6.911624
976.901245	-8.551165	-22.249357	-53.591419
977.271606	-26.921328	-47.577629	-29.750105
977.641846	2.368707	-7.851874	-5.422375
978.012024	-37.846775	12.000886	-16.840151
978.382019	-26.921463	13.985727	-9.393430
978.752136	-27.418011	-5.866230	-38.689461
979.122131	-31.390551	-33.174068	-49.120499
979.492065	-43.310463	-19.766739	-58.559494
979.861877	-56.226120	22.420832	-49.120228
980.231689	-19.969952	9.023364	-17.336748
980.601440	-20.962936	7.534749	-10.882780
980.971191	-24.438782	34.327469	-34.219677
981.340820	-63.181934	26.390158	-53.591286
981.710266	-52.251888	-16.787897	-37.696175
982.079773	-56.722782	-0.406290	-36.206146
982.449280	-38.840061	-44.597378	-16.840284
982.818604	-19.969952	1.578969	-26.274212
983.187866	-29.900682	17.955482	-47.630180
983.557129	-29.404383	13.985727	-25.281139
983.926331	-62.188236	-12.816074	-24.287947
984.295471	-41.820293	26.886253	-11.379328
984.664612	-32.880188	-6.859246	-26.770756
985.033569	-17.983898	12.993450	-12.372167
985.402527	-41.323624	-8.844788	-39.682896
985.771362	-42.813511	-0.406290	-19.819263
986.140259	-45.297104	-15.298399	4.008214
986.508911	-5.076527	29.862743	2.519338
986.877625	-7.062144	-15.298399	-4.429653
987.246277	-72.126274	-5.369998	-37.696175
987.614929	-40.330158	13.985727	-9.889965
987.983459	-28.411121	-17.780964	-34.716427
988.351807	-54.238834	-13.809207	-30.743389
988.720215	-30.397390	8.527118	19.391750
989.088623	-41.323353	-38.140411	-8.400640
989.456909	-32.880459	-19.766739	-11.875745
989.825012	-33.873798	11.008440	-19.322779
990.193115	-77.592903	-30.690720	-52.598019
990.561279	-42.316967	5.549285	-54.584972
990.929321	-33.377060	2.571573	-23.294771
991.297302	-21.955801	-7.851874	-23.791424
991.665100	-61.194416	-19.766739	-48.623497
992.033020	-36.853638	7.038490	-35.709660
992.400818	-40.330292	-5.866230	-35.709660
992.768494	-51.754860	-29.697706	-15.847236
993.136047	-35.860115	9.023364	-40.179554
993.503723	-59.206963	-15.298399	-14.358030
993.871277	-37.846775	16.963001	8.474753
994.238770	-70.635368	-5.369998	-7.904387
994.606140	-35.860115	-11.326675	-38.689461
994.973450	-22.949089	9.519605	-7.904387
995.340759	-43.310463	-13.808937	-16.343960
995.708008	-60.200748	-14.305510	-21.308876
996.075195	-22.948820	17.459311	-7.904387
996.442200	-13.515425	7.534479	-25.777674
996.809265	-35.860115	-1.895412	-31.239969
997.176270	-1.105762	-23.739033	-43.159580
997.543152	-52.748386	-4.873635	-35.709660
997.910095	-29.404112	-5.369998	-36.703045
998.276733	-48.774395	-39.630219	-44.649788
998.643494	-32.383865	-8.844653	-23.294771
999.010193	-14.508569	-15.794984	-54.584972
999.376831	-38.343414	-5.369998	-11.875745
999.743286	-43.807152	12.497237	-4.925877
1000.109802	-32.383865	-21.752853	-0.955123
1000.476257	-32.880459	1.578834	-50.610859
1000.842651	-58.213333	21.428560	-50.113842
1001.208923	-58.213333	-24.235554	-41.172878
1001.575134	-37.350140	-17.780828	-42.166359
1001.941284	-10.040493	-10.333989	-33.723072
1002.307434	-54.238834	-18.773911	-49.617237
1002.673523	-8.054775	-24.235689	2.022903
1003.039429	-52.748520	6.045826	-21.308876
1003.405334	-30.893969	-52.545326	-27.763990
1003.771179	-38.840061	-52.545464	-29.253536
1004.137024	-62.187962	-10.830398	-43.159851
1004.502808	-45.793808	-11.823362	-23.791424
1004.868408	-22.452309	13.489658	-4.926012
1005.234009	-26.424784	-19.270390	-21.308607
1005.599609	-19.473331	-23.739033	-38.689461
1005.965149	6.835370	-18.773911	-47.133461
1006.330444	-23.942259	-32.180878	-36.206146
1006.695862	-38.343414	9.519605	-27.267303
1007.061218	-37.846775	11.504664	-22.798529
1007.426453	-57.716660	-7.851874	-64.024849
1007.791626	-30.397390	-13.808937	-42.166359
1008.156677	-43.310192	9.519875	-62.534149
1008.521729	-18.976849	1.578969	-5.918742
1008.886780	-27.417742	-6.362871	-13.365157
1009.251709	-28.411121	-23.739033	-41.669682
1009.616577	0.879790	-26.718225	-30.743389
1009.981384	-34.867016	-19.270390	-16.343960
1010.346130	-42.316967	-21.256351	-15.350784
1010.710754	-30.893969	-14.305510	-25.281004
1011.075439	-12.026278	-9.341185	-0.955123
1011.439941	-35.363632	-4.873635	-0.955123
1011.804443	6.835370	-13.808937	-20.812380
1012.168884	-48.774124	-20.263498	-22.798258
1012.533325	-24.935175	20.436409	-21.308607
1012.897522	-11.033309	-23.739033	-46.636742
1013.261780	-31.887136	11.504664	-38.689732
1013.626038	-21.459435	25.397818	-27.267303
1013.990112	-23.445469	-48.571350	-55.081760
1014.354187	-30.893969	30.359079	-22.301748
1014.718140	-32.880459	13.489658	-40.676212
1015.082153	-22.949089	10.015977	-62.534420
1015.446045	-63.181934	-2.391615	-47.630180
1015.809937	-14.508569	-7.355490	-50.114113
1016.173523	-52.251621	-2.888092	-44.152958
1016.537170	-19.969816	-21.752853	-47.630180
1016.900879	-10.536899	-0.902615	-66.509346
1017.264404	-31.887272	12.993450	-29.750105
1017.627991	-34.370403	-32.180878	-70.981598
1017.991333	-37.350140	-29.201138	-6.415113
1018.354675	-14.508569	-47.081047	8.971000
1018.718018	-85.545631	-6.362601	-51.604229
1019.081299	-26.921328	-33.174068	-24.287947
1019.444397	-27.418011	-49.067951	5.993325
1019.807495	-39.336845	-24.732080	15.918280
1020.170593	-31.390551	2.571843	-66.509346
1020.533691	-49.767731	-2.888092	-43.656269
1020.896606	-23.941988	-27.711594	-41.172878
1021.259460	-21.459435	-8.348532	-28.260548
1021.622253	-24.935175	-4.873635	-22.798529
1021.985046	-78.586868	-27.214773	-35.709660
1022.347778	-43.310192	-34.167141	-26.770756
1022.710327	-37.846775	-25.228746	-41.669682
1023.072876	-34.370403	-32.677471	-34.716156
1023.435364	-55.729324	-7.355490	-13.365023
1023.797852	-37.846775	-35.160366	-53.094646
1024.160278	-3.090976	-40.127144	-21.805378
1024.522461	2.865140	-30.690720	-6.415113
1024.884766	-26.424784	-5.866230	-53.591419
1025.246948	-42.813511	-42.113811	-1.451587
1025.609131	-38.343414	-36.154011	-10.883050
1025.971069	-36.853638	-2.888092	-32.233280
1026.333130	-26.921463	-3.880923	-49.120499
1026.694946	-33.377060	-2.888092	-25.777674
1027.056885	-3.090976	-10.830398	-68.993950
1027.418823	-22.948820	-1.398944	-40.676212
1027.780396	-18.480371	-31.684288	-38.192814
1028.142090	-72.623207	-20.759991	-38.689461
1028.503784	-27.914564	-1.895412	-14.854472
1028.865479	-45.793808	-32.677471	-10.386371
1029.226807	6.339106	-29.697706	-49.617237
1029.588135	-51.754860	-16.291304	-50.113842
1029.949707	-31.390821	-40.127144	-47.630180
1030.310913	-14.508569	-48.571350	-33.226471
1030.672241	-21.955801	-36.153740	-49.617237
1031.033325	-53.245289	7.038220	-13.365157
1031.394531	-19.473331	5.053280	-58.062817
1031.755493	-58.213333	11.008440	-22.798258
1032.116577	-44.303711	-64.469284	-9.393700
1032.477417	-50.264473	-23.242516	-27.763721
1032.838257	-61.691257	-47.577900	-32.729736
1033.199097	-32.383865	-10.333989	-1.947921
1033.559937	-61.691257	-17.284496	-19.819263
1033.920654	-22.948820	-7.355490	-55.578682
1034.281128	-48.277393	-55.526257	-40.676212
1034.641724	-20.962936	-24.235554	-25.281004
1035.002197	-51.258106	-44.597378	-0.955123
1035.362671	-34.370132	-10.830533	-18.329823
1035.722900	-50.761494	-52.545326	-59.553131
1036.083252	-41.820293	-31.187569	-36.703045
1036.443481	-32.383865	-75.401756	-27.267303
1036.803711	-15.004877	-36.154011	-45.146488
1037.163940	-34.370403	-28.704575	-37.696175
1037.523804	-35.363632	22.420967	-51.107609
1037.883789	-30.893969	-29.201138	-25.777674
1038.243774	-15.998048	-42.113811	-17.833487
1038.603638	-40.330158	-31.187569	-49.617237
1038.963257	-13.515425	-65.960037	-28.757107
1039.323120	-41.820293	-33.670536	-35.212769
1039.682861	-65.169250	-19.270390	-10.882780
>>>>>End Processed Spectral Data<<<<<
