Jaz Data File
++++++++++++++++++++++++++++++++++++
Date: Sat Dec 06 16:54:51 2014
User: jaz
Dark Spectrum Present: Yes
Reference Spectrum Present: Yes
Processed Spectrum Present: No
Spectrometers: JAZA2310
Integration Time (usec): 3310 (JAZA2310)
Spectra Averaged: 1 (JAZA2310)
Boxcar Smoothing: 0 (JAZA2310)
Correct for Electrical Dark: Yes (JAZA2310)
Strobe/Lamp Enabled: No (JAZA2310)
Correct for Detector Non-linearity: Yes (JAZA2310)
Correct for Stray Light: No (JAZA2310)
Number of Pixels in Processed Spectrum: 2048
>>>>>Begin Processed Spectral Data<<<<<
W	D	R	S
188.301102	0.000000	0.000000	0.000000
188.764923	0.000000	0.000000	0.000000
189.228699	-35.938992	-80.936409	-21.060560
189.692459	-73.198936	1.015172	31.050627
190.156158	-85.624306	-75.966431	-60.795273
190.619812	-40.905567	-8.912288	75.681000
191.083435	-18.559090	38.228279	1.278512
191.547043	11.223152	38.228279	3.760004
192.010590	-1.184322	-98.334915	-40.924477
192.474091	-38.422161	-11.394314	18.647442
192.937561	-13.594271	-11.394314	-6.166995
193.401001	-21.041521	20.865089	23.608999
193.864410	-38.422161	43.188202	11.204123
194.327759	43.470238	38.228279	60.807957
194.791077	68.263817	-61.058891	68.244942
195.254349	43.470238	23.345894	-6.166995
195.717575	38.510338	33.267811	23.608999
196.180786	6.260421	-8.912288	26.089691
196.643951	-43.389080	-6.430233	36.011284
197.107071	6.260421	43.188202	18.647442
197.570145	18.666334	-43.671532	-38.441204
198.033203	31.069647	72.939484	6.241526
198.496216	-26.006969	60.544884	-11.131053
198.959167	-1.184322	-6.430233	-108.015579
199.422089	58.347591	35.748096	1.278512
199.884979	-21.041521	-23.806549	-18.577993
200.347855	26.108580	20.865089	-28.508759
200.810654	-35.938992	-13.876578	-8.648904
201.273422	-68.229614	28.307058	21.128206
201.736160	-16.076628	15.903167	-23.543098
202.198853	-28.489717	-1.466570	33.531006
202.661514	-6.147960	-31.255095	-40.924477
203.124130	-115.455849	-1.466570	26.089691
203.586700	75.699867	-61.058891	-8.648904
204.049240	-13.594271	18.384180	23.608999
204.511734	-53.324051	-23.806549	-45.891609
204.974197	-21.041521	-98.334915	58.328716
205.436615	60.826836	-68.512184	-6.166995
205.899002	-13.594271	1.015172	-16.095530
206.361343	-38.422161	-16.358948	-50.859028
206.823654	-93.080750	-38.704586	-38.441204
207.285919	-28.489717	15.903167	-35.957901
207.748123	28.589165	-28.772097	-3.685055
208.210327	-68.229614	25.826462	-8.648904
208.672485	-50.840118	-6.430233	-103.043144
209.134583	-75.683823	28.307058	-60.795273
209.596649	-85.624306	-75.966431	-40.924477
210.058670	-1.184322	-38.704586	-18.577993
210.520676	-78.168816	-78.451439	-100.557076
210.982635	-21.041521	-38.704586	-21.060560
211.444534	-80.653786	-38.704586	-152.786087
211.906403	-68.229614	-6.430233	-70.733208
212.368240	-70.714287	-63.543125	-132.883820
212.830048	11.223152	-11.394314	-35.957901
213.291779	-21.041521	-33.738197	60.807957
213.753494	-63.260578	-48.638763	-23.543098
214.215179	-30.972702	-26.289337	-152.786087
214.676819	-58.292103	-80.936409	-73.217995
215.138412	-33.455795	-85.906960	-93.099678
215.599960	6.260421	72.939484	26.089691
216.061493	-48.356289	-21.323864	-110.501831
216.522949	-11.112152	-26.289337	16.166439
216.984406	-13.594271	1.015172	-28.508759
217.445801	-38.422161	15.903167	-60.795273
217.907166	-8.630004	-33.738197	-80.672844
218.368484	43.470238	-56.090469	31.050627
218.829773	-21.041521	-53.606419	-35.957901
219.291031	-28.489717	-95.849052	-33.474701
219.752228	-73.198936	-51.122604	13.685334
220.213379	-50.840118	5.978343	-50.859028
220.674500	-83.138985	-41.188007	38.491318
221.135574	33.549892	-31.255095	-55.827007
221.596634	-53.324051	-11.394314	-73.217995
222.057648	-38.422161	-78.451439	-43.407990
222.518600	-23.524193	72.939484	-33.474701
222.979553	-73.198936	-53.606419	43.451355
223.440430	-63.260578	-100.820885	-70.733208
223.901276	-11.112152	-36.221272	-100.557076
224.362076	36.030167	-53.606419	-40.924477
224.822845	-6.147960	-66.027603	-6.166995
225.283569	-95.566483	-33.738197	1.278512
225.744278	-28.489717	1.015172	-13.613306
226.204910	26.108580	-28.772097	16.166439
226.665512	-33.455795	-80.936409	-26.025875
227.126114	-45.872566	-6.430233	-38.441204
227.586639	-140.327301	-1.466570	-33.474701
228.047119	-3.666021	-68.512184	8.722944
228.507568	-58.292103	-108.279282	-30.991747
228.967972	-18.559090	-75.966431	-43.407990
229.428345	-127.890297	-108.279282	-45.891609
229.888687	-21.041521	-11.394314	1.278512
230.348984	1.297408	-31.255095	-33.474701
230.809219	-78.168816	-3.948282	-60.795273
231.269440	6.260421	-51.122604	16.166439
231.729614	-30.972702	20.865089	-30.991747
232.189758	-33.455795	-36.221272	6.241526
232.649841	-43.389080	-11.394314	16.166439
233.109894	-1.184322	-51.122604	-48.375336
233.569901	1.297408	-90.877800	-13.613306
234.029892	31.069647	-16.358948	-40.924477
234.489822	11.223152	-38.704586	-28.508759
234.949707	3.779034	67.981895	33.531006
235.409561	-38.422161	-68.512184	73.202362
235.869385	36.030167	-16.358948	-8.648904
236.329163	13.704361	-75.966431	-21.060560
236.788895	-33.455795	-13.876578	-40.924477
237.248581	-21.041521	-63.543125	-43.407990
237.708237	6.260421	-6.430233	-73.217995
238.167847	-58.292103	-98.334915	-88.128647
238.627441	-18.559090	-51.122604	-60.795273
239.086960	-60.776356	-33.738197	8.722944
239.546463	-110.482895	28.307058	-50.859028
240.005920	11.223152	-33.738197	-40.924477
240.465332	-35.938992	-8.912288	-38.441204
240.924698	-23.524193	-110.765678	-35.957901
241.384033	18.666334	-75.966431	-88.128647
241.843338	23.627890	-73.481529	-40.924477
242.302597	-50.840118	-68.512184	45.931084
242.761810	43.470238	-23.806549	-35.957901
243.220993	-28.489717	-56.090469	-43.407990
243.680115	-105.510239	-18.841421	-55.827007
244.139221	-8.630004	-48.638763	-1.203219
244.598282	-11.112152	-41.188007	-18.577993
245.057297	-45.872566	-83.421631	-48.375336
245.516266	-6.147960	-51.122604	78.159523
245.975189	-38.422161	-26.289337	16.166439
246.434082	-38.422161	50.627377	-93.099678
246.892944	3.779034	13.422184	13.685334
247.351761	-26.006969	-61.058891	-80.672844
247.810516	-13.594271	-13.876578	3.760004
248.269272	-58.292103	30.787552	-65.764099
248.727951	-35.938992	80.374954	36.011284
249.186600	21.147230	-23.806549	-38.441204
249.645218	40.990273	40.708359	-40.924477
250.103790	-55.807961	-28.772097	-50.859028
250.562317	-93.080750	5.978343	-40.924477
251.020813	-63.260578	20.865089	-16.095530
251.479279	-65.745041	33.267811	-8.648904
251.937668	-78.168816	-75.966431	-28.508759
252.396057	-43.389080	-75.966431	-3.685055
252.854385	-63.260578	18.384180	-3.685055
253.312683	-33.455795	-51.122604	-83.157913
253.770920	-40.905567	-23.806549	53.370052
254.229126	-23.524193	-18.841421	-1.203219
254.687302	28.589165	23.345894	33.531006
255.145432	-70.714287	-46.155025	-26.025875
255.603500	-75.683823	-26.289337	-1.203219
256.061584	-26.006969	-26.289337	-48.375336
256.519592	-103.024216	-53.606419	13.685334
256.977570	23.627890	-138.122681	-48.375336
257.435455	-65.745041	-28.772097	-3.685055
257.893372	-3.666021	23.345894	-58.311016
258.351196	-30.972702	-16.358948	-103.043144
258.808990	-3.666021	-31.255095	-88.128647
259.266754	11.223152	-8.912288	-26.025875
259.724487	-30.972702	-80.936409	-35.957901
260.182190	50.909378	-23.806549	-13.613306
260.639832	-28.489717	-1.466570	-13.613306
261.097443	-100.538155	-68.512184	23.608999
261.554993	-93.080750	-8.912288	-28.508759
262.012512	23.627890	25.826462	-21.060560
262.469971	-1.184322	-88.392258	-68.248535
262.927429	-122.916138	-63.543125	-70.733208
263.384827	-55.807961	-36.221272	-58.311016
263.842194	-6.147960	-56.090469	-26.025875
264.299530	-78.168816	70.460739	-8.648904
264.756805	3.779034	-8.912288	-38.441204
265.214050	-85.624306	-16.358948	6.241526
265.671234	11.223152	25.826462	33.531006
266.128387	13.704361	-6.430233	-28.508759
266.585510	6.260421	-48.638763	3.760004
267.042572	21.147230	-33.738197	-65.764099
267.499573	-21.041521	-85.906960	-16.095530
267.956604	68.263817	-51.122604	-40.924477
268.413574	-93.080750	20.865089	-13.613306
268.870483	-30.972702	-38.704586	-18.577993
269.327362	-11.112152	-3.948282	3.760004
269.784180	-48.356289	-85.906960	-65.764099
270.240936	-18.559090	-3.948282	16.166439
270.697693	-50.840118	-11.394314	33.531006
271.154419	16.185331	-83.421631	-16.095530
271.611053	-21.041521	-85.906960	-38.441204
272.067688	-60.776356	-31.255095	-23.543098
272.524292	-73.198936	-63.543125	53.370052
272.980835	3.779034	-41.188007	16.166439
273.437347	1.297408	-36.221272	60.807957
273.893799	-35.938992	13.422184	-33.474701
274.350250	-58.292103	-113.252045	18.647442
274.806610	-13.594271	-63.543125	-18.577993
275.262939	-58.292103	-18.841421	-26.025875
275.719238	-30.972702	-28.772097	-38.441204
276.175507	11.223152	-31.255095	-11.131053
276.631714	-115.455849	-78.451439	8.722944
277.087891	-11.112152	38.228279	-30.991747
277.544067	-21.041521	-1.466570	28.570143
278.000122	-48.356289	-41.188007	-93.099678
278.456177	-11.112152	-18.841421	-11.131053
278.912201	-21.041521	45.668076	-23.543098
279.368164	-55.807961	-56.090469	-45.891609
279.824097	-43.389080	-48.638763	-30.991747
280.279968	-8.630004	40.708359	-95.585419
280.735840	18.666334	-16.358948	-43.407990
281.191620	-58.292103	-26.289337	-40.924477
281.647400	-78.168816	-28.772097	-60.795273
282.103149	13.704361	23.345894	-48.375336
282.558838	-63.260578	-33.738197	-45.891609
283.014465	-11.112152	5.978343	-30.991747
283.470062	-85.624306	-63.543125	-73.217995
283.925629	-8.630004	-23.806549	-6.166995
284.381134	40.990273	-48.638763	-30.991747
284.836639	-40.905567	-41.188007	-38.441204
285.292053	-8.630004	25.826462	-3.685055
285.747467	-48.356289	-88.392258	-28.508759
286.202820	-13.594271	-56.090469	-3.685055
286.658142	-28.489717	-23.806549	-43.407990
287.113434	-88.109589	-38.704586	43.451355
287.568634	-28.489717	-46.155025	-8.648904
288.023804	-68.229614	-8.912288	23.608999
288.478973	-21.041521	-18.841421	-65.764099
288.934113	-50.840118	-18.841421	-60.795273
289.389130	-132.864746	-13.876578	-53.342968
289.844208	13.704361	-33.738197	-28.508759
290.299164	-21.041521	-56.090469	-85.643227
290.754089	48.429859	-100.820885	-50.859028
291.208984	-38.422161	-13.876578	-13.613306
291.663879	-30.972702	-58.574627	-78.187744
292.118683	-30.972702	15.903167	-1.203219
292.573456	-90.595116	-33.738197	-127.909233
293.028198	-60.776356	-133.147629	60.807957
293.482849	-112.969383	-85.906960	-28.508759
293.937561	23.627890	-53.606419	-45.891609
294.392151	-28.489717	23.345894	-65.764099
294.846741	-88.109589	-75.966431	-18.577993
295.301239	-60.776356	-3.948282	-48.375336
295.755737	-95.566483	-80.936409	18.647442
296.210175	-78.168816	-63.543125	-16.095530
296.664581	-35.938992	-75.966431	-16.095530
297.118958	-18.559090	-100.820885	13.685334
297.573242	-93.080750	-75.966431	-3.685055
298.027557	-55.807961	-66.027603	-45.891609
298.481812	-6.147960	-88.392258	-60.795273
298.935974	-6.147960	-26.289337	-13.613306
299.390137	13.704361	-135.635101	-68.248535
299.844238	-53.324051	-31.255095	13.685334
300.298340	-83.138985	-170.470428	55.849365
300.752350	-93.080750	-28.772097	-3.685055
301.206360	13.704361	-63.543125	-30.991747
301.660278	-18.559090	-56.090469	80.637810
302.114197	-83.138985	-26.289337	-60.795273
302.568054	-16.076628	38.228279	-40.924477
303.021881	1.297408	35.748096	-35.957901
303.475677	-13.594271	10.940963	3.760004
303.929413	-33.455795	65.503082	-75.702744
304.383118	-1.184322	-61.058891	16.166439
304.836761	-16.076628	3.496810	-55.827007
305.290375	-93.080750	-83.421631	3.760004
305.743958	-100.538155	-26.289337	-53.342968
306.197510	-18.559090	-85.906960	-26.025875
306.650970	-45.872566	-73.481529	-40.924477
307.104431	-88.109589	-66.027603	45.931084
307.557800	-18.559090	-23.806549	-28.508759
308.011169	-13.594271	-11.394314	-16.095530
308.464508	-55.807961	-38.704586	50.890495
308.917755	1.297408	28.307058	-6.166995
309.371063	-50.840118	-6.430233	-16.095530
309.824219	-35.938992	18.384180	-50.859028
310.277374	-13.594271	-6.430233	-63.279633
310.730499	-21.041521	-23.806549	-21.060560
311.183563	-73.198936	-68.512184	38.491318
311.636597	-60.776356	10.940963	18.647442
312.089569	-3.666021	-3.948282	21.128206
312.542511	-38.422161	-38.704586	-83.157913
312.995422	-98.052200	-18.841421	8.722944
313.448273	-35.938992	-56.090469	-23.543098
313.901093	-112.969383	-85.906960	-130.396469
314.353882	-55.807961	15.903167	-33.474701
314.806580	-107.996513	28.307058	-13.613306
315.259308	21.147230	-3.948282	-30.991747
315.711975	-1.184322	-23.806549	-35.957901
316.164581	-40.905567	50.627377	-38.441204
316.617126	-43.389080	-1.466570	-50.859028
317.069672	-35.938992	-43.671532	-13.613306
317.522156	-18.559090	-13.876578	-33.474701
317.974579	-43.389080	-11.394314	18.647442
318.427002	-38.422161	38.228279	-38.441204
318.879333	28.589165	-33.738197	-50.859028
319.331665	-65.745041	-1.466570	1.278512
319.783936	-95.566483	-1.466570	-26.025875
320.236176	-30.972702	-11.394314	-38.441204
320.688354	21.147230	-63.543125	-40.924477
321.140503	-73.198936	3.496810	-30.991747
321.592651	1.297408	-26.289337	-21.060560
322.044647	-23.524193	-73.481529	-28.508759
322.496704	-16.076628	5.978343	-3.685055
322.948639	-35.938992	-103.306953	-117.961487
323.400604	-33.455795	-160.515289	-95.585419
323.852509	11.223152	23.345894	65.766006
324.304352	-38.422161	-33.738197	28.570143
324.756165	-85.624306	-46.155025	38.491318
325.207916	-35.938992	-11.394314	-18.577993
325.659668	-50.840118	13.422184	-58.311016
326.111328	-117.942543	-3.948282	-115.474915
326.562988	-3.666021	15.903167	36.011284
327.014557	-73.198936	-58.574627	-1.203219
327.466156	-28.489717	-3.948282	21.128206
327.917664	-30.972702	-3.948282	-127.909233
328.369110	-112.969383	25.826462	-8.648904
328.820557	-53.324051	58.065624	-58.311016
329.271942	-78.168816	50.627377	1.278512
329.723297	21.147230	-28.772097	26.089691
330.174561	-75.683823	18.384180	1.278512
330.625854	-30.972702	5.978343	16.166439
331.077026	-23.524193	58.065624	1.278512
331.528229	-70.714287	-58.574627	-68.248535
331.979370	-117.942543	3.496810	-13.613306
332.430450	-70.714287	-16.358948	1.278512
332.881500	-63.260578	87.809502	-30.991747
333.332489	-147.790955	67.981895	-70.733208
333.783478	-28.489717	43.188202	-45.891609
334.234406	-26.006969	-51.122604	-55.827007
334.685303	8.741838	-18.841421	-40.924477
335.136078	-28.489717	-46.155025	16.166439
335.586914	-90.595116	-70.996735	16.166439
336.037659	-40.905567	-1.466570	-8.648904
336.488342	-26.006969	-8.912288	55.849365
336.939026	-98.052200	-36.221272	11.204123
337.389648	-13.594271	-108.279282	-58.311016
337.840240	-55.807961	-78.451439	-45.891609
338.290771	11.223152	-85.906960	-75.702744
338.741272	1.297408	-128.173157	11.204123
339.191681	-18.559090	-26.289337	-48.375336
339.642120	13.704361	-48.638763	-55.827007
340.092468	-55.807961	-31.255095	-48.375336
340.542816	-6.147960	-103.306953	-33.474701
340.993103	-88.109589	-48.638763	-43.407990
341.443329	18.666334	15.903167	-40.924477
341.893555	-38.422161	-98.334915	-1.203219
342.343689	-23.524193	1.015172	-23.543098
342.793793	-58.292103	-61.058891	-63.279633
343.243866	-23.524193	-41.188007	-38.441204
343.693878	-8.630004	-3.948282	-43.407990
344.143890	-38.422161	-108.279282	-58.311016
344.593842	-38.422161	-78.451439	-78.187744
345.043732	1.297408	-26.289337	-43.407990
345.493591	-3.666021	33.267811	-112.988319
345.943359	23.627890	23.345894	-8.648904
346.393158	-33.455795	-68.512184	-48.375336
346.842896	-48.356289	1.015172	33.531006
347.292542	-35.938992	10.940963	-3.685055
347.742218	-55.807961	-28.772097	-60.795273
348.191803	-130.377533	13.422184	-55.827007
348.641357	-73.198936	-33.738197	-40.924477
349.090881	8.741838	-18.841421	-108.015579
349.540314	-125.403168	-41.188007	23.608999
349.989777	-16.076628	-51.122604	-8.648904
350.439148	-78.168816	25.826462	-58.311016
350.888489	-1.184322	-46.155025	-50.859028
351.337799	40.990273	-78.451439	-50.859028
351.787048	-107.996513	-46.155025	11.204123
352.236267	-18.559090	-36.221272	-1.203219
352.685425	8.741838	-80.936409	-1.203219
353.134552	33.549892	-18.841421	26.089691
353.583649	-103.024216	-70.996735	23.608999
354.032684	-38.422161	-73.481529	-8.648904
354.481659	75.699867	-68.512184	-48.375336
354.930634	-90.595116	23.345894	68.244942
355.379517	-26.006969	-56.090469	31.050627
355.828430	-13.594271	-33.738197	-68.248535
356.277222	-28.489717	-11.394314	6.241526
356.726013	-18.559090	-46.155025	21.128206
357.174774	31.069647	-53.606419	-40.924477
357.623444	40.990273	55.586403	-73.217995
358.072113	16.185331	-23.806549	-90.614174
358.520721	-127.890297	-53.606419	38.491318
358.969299	-21.041521	1.015172	-33.474701
359.417786	1.297408	-80.936409	-8.648904
359.866302	-53.324051	-56.090469	-48.375336
360.314697	-45.872566	1.015172	-53.342968
360.763123	-75.683823	-100.820885	-30.991747
361.211456	11.223152	-51.122604	-8.648904
361.659760	-43.389080	20.865089	-53.342968
362.108032	-23.524193	-26.289337	13.685334
362.556244	3.779034	-80.936409	-35.957901
363.004456	-26.006969	10.940963	3.760004
363.452576	-78.168816	-46.155025	-33.474701
363.900696	-30.972702	-90.877800	-68.248535
364.348663	-63.260578	-78.451439	-55.827007
364.796722	3.779034	-33.738197	-8.648904
365.244690	-38.422161	30.787552	-8.648904
365.692596	-40.905567	58.065624	-90.614174
366.140472	-8.630004	3.496810	-6.166995
366.588287	-70.714287	20.865089	-30.991747
367.036102	-8.630004	15.903167	-43.407990
367.483826	-23.524193	-6.430233	18.647442
367.931549	-30.972702	-18.841421	-28.508759
368.379181	-73.198936	-13.876578	-30.991747
368.826843	-65.745041	-11.394314	-38.441204
369.274384	-18.559090	-41.188007	-8.648904
369.721924	68.263817	-66.027603	-78.187744
370.169403	18.666334	3.496810	-78.187744
370.616821	-6.147960	-48.638763	-43.407990
371.064270	43.470238	-28.772097	-100.557076
371.511566	80.656815	28.307058	-100.557076
371.958923	-18.559090	-56.090469	1.278512
372.406158	-26.006969	-43.671532	-40.924477
372.853424	-8.630004	-68.512184	-23.543098
373.300568	-13.594271	-18.841421	-58.311016
373.747711	1.297408	5.978343	-38.441204
374.194794	1.297408	-21.323864	-68.248535
374.641846	-18.559090	5.978343	36.011284
375.088898	3.779034	-113.252045	40.971390
375.535828	85.613220	-93.363441	-90.614174
375.982758	31.069647	-23.806549	-35.957901
376.429596	6.260421	15.903167	-3.685055
376.876465	-13.594271	-43.671532	-16.095530
377.323242	-68.229614	58.065624	-33.474701
377.769989	-73.198936	-23.806549	-1.203219
378.216675	6.260421	13.422184	-38.441204
378.663330	1.297408	3.496810	-70.733208
379.109985	-58.292103	5.978343	-18.577993
379.556519	-21.041521	-41.188007	-73.217995
380.003052	3.779034	-31.255095	-48.375336
380.449524	-13.594271	-13.876578	16.166439
380.895996	-53.324051	-46.155025	-33.474701
381.342377	11.223152	-36.221272	-43.407990
381.788727	-40.905567	-73.481529	-63.279633
382.235046	-70.714287	-13.876578	-23.543098
382.681274	-83.138985	-46.155025	8.722944
383.127533	-28.489717	20.865089	8.722944
383.573669	-35.938992	-8.912288	-18.577993
384.019836	-58.292103	-23.806549	-1.203219
384.465912	-30.972702	-68.512184	-63.279633
384.911957	-18.559090	-6.430233	-1.203219
385.357971	-1.184322	-21.323864	1.278512
385.803925	-40.905567	-1.466570	21.128206
386.249847	-50.840118	-53.606419	-35.957901
386.695679	-26.006969	5.978343	23.608999
387.141541	-78.168816	-68.512184	-55.827007
387.587311	-50.840118	-105.792999	26.089691
388.033051	26.108580	-23.806549	-38.441204
388.478729	18.666334	-18.841421	-55.827007
388.924408	-35.938992	10.940963	-8.648904
389.369995	-55.807961	-11.394314	33.531006
389.815552	-45.872566	-23.806549	-1.203219
390.261078	-55.807961	-8.912288	-33.474701
390.706543	-35.938992	-21.323864	-65.764099
391.152008	-50.840118	-28.772097	-70.733208
391.597351	-65.745041	-125.686012	31.050627
392.042725	-98.052200	-58.574627	-28.508759
392.487976	13.704361	5.978343	-73.217995
392.933289	-60.776356	3.496810	11.204123
393.378479	-73.198936	-38.704586	-1.203219
393.823639	-3.666021	-13.876578	-16.095530
394.268768	-16.076628	-36.221272	-35.957901
394.713837	-53.324051	-6.430233	-33.474701
395.158905	-120.429359	-21.323864	21.128206
395.603851	-35.938992	-63.543125	-73.217995
396.048798	-73.198936	67.981895	-40.924477
396.493683	28.589165	-56.090469	-21.060560
396.938568	-11.112152	-11.394314	-13.613306
397.383392	-68.229614	-36.221272	13.685334
397.828156	65.784882	-21.323864	-50.859028
398.272888	-50.840118	30.787552	-11.131053
398.717560	-13.594271	5.978343	-26.025875
399.162201	-58.292103	23.345894	-18.577993
399.606781	-16.076628	8.459638	28.570143
400.051361	-53.324051	-88.392258	-28.508759
400.495819	-83.138985	-61.058891	-33.474701
400.940308	33.549892	-1.466570	-13.613306
401.384705	-1.184322	-51.122604	-68.248535
401.829102	-53.324051	-36.221272	11.204123
402.273438	-21.041521	-53.606419	-60.795273
402.717682	21.147230	-6.430233	1.278512
403.161926	13.704361	-83.421631	-18.577993
403.606110	40.990273	-36.221272	-28.508759
404.050293	-33.455795	-63.543125	31.050627
404.494385	-38.422161	-31.255095	-6.166995
404.938446	-33.455795	-6.430233	-35.957901
405.382477	-16.076628	-58.574627	-6.166995
405.826447	-80.653786	-105.792999	-33.474701
406.270386	-8.630004	-48.638763	-16.095530
406.714233	-48.356289	45.668076	-26.025875
407.158081	-8.630004	10.940963	-53.342968
407.601868	-65.745041	-36.221272	-13.613306
408.045624	-103.024216	-88.392258	-8.648904
408.489319	-127.890297	-80.936409	50.890495
408.933014	-26.006969	-38.704586	-53.342968
409.376617	-73.198936	-38.704586	-68.248535
409.820190	-48.356289	5.978343	-45.891609
410.263702	-58.292103	-78.451439	-28.508759
410.707184	-75.683823	-31.255095	-18.577993
411.150635	-40.905567	43.188202	18.647442
411.594025	28.589165	-33.738197	48.410843
412.037384	-18.559090	-110.765678	-18.577993
412.480682	18.666334	-46.155025	-13.613306
412.923981	-23.524193	-11.394314	-30.991747
413.367126	-21.041521	-56.090469	-8.648904
413.810333	-73.198936	-63.543125	-3.685055
414.253479	1.297408	1.015172	33.531006
414.696533	45.950100	18.384180	-68.248535
415.139587	-65.745041	18.384180	-1.203219
415.582581	-60.776356	-38.704586	-8.648904
416.025543	-145.302963	-3.948282	-127.909233
416.468414	-35.938992	-6.430233	38.491318
416.911285	8.741838	-51.122604	-75.702744
417.354065	-38.422161	23.345894	23.608999
417.796875	45.950100	-48.638763	-11.131053
418.239594	-48.356289	-46.155025	-23.543098
418.682281	-83.138985	-38.704586	23.608999
419.124908	18.666334	8.459638	38.491318
419.567505	8.741838	-48.638763	31.050627
420.010071	-30.972702	-38.704586	11.204123
420.452545	-30.972702	1.015172	13.685334
420.895020	6.260421	-46.155025	-45.891609
421.337372	-48.356289	-16.358948	-88.128647
421.779785	1.297408	-21.323864	16.166439
422.222107	-38.422161	-83.421631	-11.131053
422.664368	-40.905567	-48.638763	18.647442
423.106628	-48.356289	-75.966431	-21.060560
423.548798	-63.260578	33.267811	-11.131053
423.990967	-35.938992	-43.671532	-30.991747
424.433044	-28.489717	-18.841421	-38.441204
424.875092	-23.524193	-8.912288	-48.375336
425.317078	-75.683823	-56.090469	-8.648904
425.759064	45.950100	-26.289337	-18.577993
426.200989	-78.168816	-53.606419	-68.248535
426.642853	-38.422161	23.345894	-75.702744
427.084686	-16.076628	-73.481529	6.241526
427.526459	31.069647	-3.948282	-110.501831
427.968201	-50.840118	-18.841421	-98.071259
428.409912	-100.538155	-23.806549	-38.441204
428.851563	-50.840118	-38.704586	43.451355
429.293121	-40.905567	5.978343	-85.643227
429.734711	-83.138985	-21.323864	-50.859028
430.176239	-3.666021	-3.948282	-3.685055
430.617706	-18.559090	-28.772097	-18.577993
431.059113	-11.112152	35.748096	-48.375336
431.500488	-30.972702	8.459638	-35.957901
431.941833	-43.389080	-108.279282	8.722944
432.383087	-85.624306	-85.906960	-23.543098
432.824341	-26.006969	-56.090469	-50.859028
433.265533	-115.455849	33.267811	-60.795273
433.706726	-38.422161	5.978343	-60.795273
434.147827	-45.872566	-41.188007	-63.279633
434.588867	-48.356289	8.459638	-70.733208
435.029877	-13.594271	-33.738197	6.241526
435.470825	11.223152	-75.966431	43.451355
435.911804	3.779034	-11.394314	-38.441204
436.352661	36.030167	-31.255095	1.278512
436.793518	23.627890	3.496810	-8.648904
437.234283	-3.666021	-33.738197	-1.203219
437.675049	8.741838	40.708359	-28.508759
438.115723	-43.389080	38.228279	-3.685055
438.556396	11.223152	-63.543125	-3.685055
438.997040	-43.389080	-16.358948	-16.095530
439.437561	-13.594271	-18.841421	-95.585419
439.878113	-21.041521	-53.606419	-93.099678
440.318573	-28.489717	-21.323864	-70.733208
440.759033	-58.292103	-73.481529	-73.217995
441.199341	-38.422161	-51.122604	13.685334
441.639709	-78.168816	18.384180	-16.095530
442.079956	-18.559090	-46.155025	-68.248535
442.520264	-65.745041	-43.671532	6.241526
442.960510	-3.666021	-48.638763	-85.643227
443.400604	43.470238	-18.841421	-50.859028
443.840759	-35.938992	-61.058891	-48.375336
444.280762	8.741838	-23.806549	11.204123
444.720825	-6.147960	-8.912288	-40.924477
445.160767	6.260421	-31.255095	-30.991747
445.600739	-38.422161	-66.027603	-73.217995
446.040558	-35.938992	5.978343	-33.474701
446.480438	-70.714287	20.865089	11.204123
446.920258	-58.292103	-21.323864	-127.909233
447.359955	-85.624306	-28.772097	-11.131053
447.799713	-58.292103	-1.466570	-65.764099
448.239319	-43.389080	-41.188007	-50.859028
448.678955	-11.112152	-33.738197	-50.859028
449.118500	-103.024216	-21.323864	8.722944
449.558014	-85.624306	-38.704586	1.278512
449.997498	21.147230	23.345894	-38.441204
450.436951	-55.807961	-13.876578	-23.543098
450.876343	11.223152	-103.306953	3.760004
451.315674	-21.041521	5.978343	-21.060560
451.754974	-43.389080	-48.638763	-85.643227
452.194183	40.990273	-75.966431	-45.891609
452.633392	23.627890	-23.806549	11.204123
453.072510	13.704361	-93.363441	-6.166995
453.511688	31.069647	-46.155025	-58.311016
453.950684	13.704361	-118.225365	-137.858704
454.389740	-58.292103	-6.430233	-23.543098
454.828735	-23.524193	-70.996735	-43.407990
455.267639	-8.630004	-125.686012	-6.166995
455.706543	-45.872566	3.496810	-1.203219
456.145325	-26.006969	-33.738197	-70.733208
456.584137	-73.198936	-51.122604	-6.166995
457.022858	1.297408	-31.255095	18.647442
457.461578	-18.559090	-98.334915	-50.859028
457.900208	-21.041521	23.345894	-23.543098
458.338867	-75.683823	-58.574627	40.971390
458.777405	-6.147960	25.826462	-33.474701
459.215912	-75.683823	-61.058891	23.608999
459.654388	-6.147960	-3.948282	11.204123
460.092773	-95.566483	-21.323864	-16.095530
460.531189	-73.198936	-8.912288	-38.441204
460.969513	-65.745041	-56.090469	-11.131053
461.407806	-60.776356	-85.906960	-35.957901
461.846008	-18.559090	-1.466570	-8.648904
462.284241	-30.972702	33.267811	1.278512
462.722351	-23.524193	25.826462	-40.924477
463.160461	8.741838	28.307058	-117.961487
463.598541	-33.455795	-46.155025	40.971390
464.036530	-11.112152	-48.638763	-3.685055
464.474518	-80.653786	-28.772097	48.410843
464.912384	1.297408	-46.155025	-73.217995
465.350281	36.030167	-98.334915	23.608999
465.788086	-18.559090	-26.289337	11.204123
466.225891	-30.972702	-41.188007	-1.203219
466.663605	-55.807961	-11.394314	-45.891609
467.101318	11.223152	3.496810	-35.957901
467.539001	36.030167	-110.765678	-18.577993
467.976563	-23.524193	-88.392258	-11.131053
468.414124	-30.972702	-41.188007	-65.764099
468.851593	-13.594271	8.459638	-50.859028
469.289063	-45.872566	-16.358948	-28.508759
469.726440	-11.112152	8.459638	-35.957901
470.163849	1.297408	13.422184	-16.095530
470.601135	-35.938992	-11.394314	-70.733208
471.038422	36.030167	-23.806549	-55.827007
471.475677	31.069647	-58.574627	-43.407990
471.912811	18.666334	-18.841421	-132.883820
472.350006	-65.745041	-28.772097	-112.988319
472.787048	-40.905567	-6.430233	26.089691
473.224121	-112.969383	-23.806549	-30.991747
473.661072	-3.666021	40.708359	-48.375336
474.098053	-30.972702	-68.512184	-48.375336
474.534943	-78.168816	-68.512184	8.722944
474.971802	-43.389080	-1.466570	-13.613306
475.408630	-50.840118	-51.122604	-18.577993
475.845367	-48.356289	-31.255095	-3.685055
476.282104	-58.292103	-63.543125	3.760004
476.718750	-45.872566	-56.090469	-1.203219
477.155426	1.297408	-43.671532	-80.672844
477.591949	-95.566483	3.496810	11.204123
478.028503	-6.147960	-36.221272	-50.859028
478.464966	16.185331	-1.466570	-18.577993
478.901428	-6.147960	-73.481529	-30.991747
479.337860	-28.489717	-66.027603	-55.827007
479.774170	-107.996513	-73.481529	-53.342968
480.210510	-55.807961	40.708359	-30.991747
480.646698	-83.138985	-33.738197	3.760004
481.082947	-48.356289	-61.058891	-6.166995
481.519073	-50.840118	3.496810	-1.203219
481.955200	-63.260578	30.787552	11.204123
482.391266	-21.041521	-33.738197	40.971390
482.827301	31.069647	13.422184	-8.648904
483.263306	11.223152	-21.323864	-45.891609
483.699188	31.069647	-21.323864	-70.733208
484.135101	-6.147960	23.345894	-58.311016
484.570923	-90.595116	13.422184	-45.891609
485.006744	23.627890	-95.849052	-11.131053
485.442413	26.108580	-56.090469	-55.827007
485.878174	-105.510239	-48.638763	-108.015579
486.313782	-11.112152	-6.430233	-98.071259
486.749390	-8.630004	-13.876578	-18.577993
487.184998	-88.109589	-38.704586	-33.474701
487.620453	-18.559090	-53.606419	-45.891609
488.055939	-63.260578	-48.638763	-53.342968
488.491333	-6.147960	-33.738197	-50.859028
488.926727	-90.595116	18.384180	21.128206
489.362030	13.704361	-11.394314	-3.685055
489.797302	23.627890	13.422184	-58.311016
490.232513	-65.745041	-103.306953	-100.557076
490.667755	6.260421	-80.936409	3.760004
491.102905	-73.198936	-18.841421	-58.311016
491.537964	-30.972702	-95.849052	-50.859028
491.973022	-58.292103	-28.772097	48.410843
492.407990	-38.422161	-70.996735	-23.543098
492.842957	-35.938992	-68.512184	-73.217995
493.277832	-1.184322	55.586403	-60.795273
493.712738	-115.455849	18.384180	-48.375336
494.147491	-60.776356	-38.704586	-50.859028
494.582275	-45.872566	-33.738197	-98.071259
495.017029	-55.807961	30.787552	53.370052
495.451660	-55.807961	75.417984	18.647442
495.886292	-1.184322	-11.394314	21.128206
496.320831	-55.807961	10.940963	-75.702744
496.755402	-63.260578	-33.738197	40.971390
497.189850	-80.653786	-88.392258	-8.648904
497.624298	-18.559090	-110.765678	-40.924477
498.058655	-98.052200	-3.948282	-58.311016
498.493042	16.185331	-28.772097	-80.672844
498.927368	-55.807961	-33.738197	-58.311016
499.361572	-43.389080	-31.255095	-48.375336
499.795807	26.108580	-33.738197	-83.157913
500.229919	-50.840118	38.228279	8.722944
500.664063	21.147230	-88.392258	-26.025875
501.098083	70.742645	-1.466570	13.685334
501.532104	-98.052200	-18.841421	-93.099678
501.966064	-88.109589	-28.772097	-48.375336
502.399994	8.741838	-43.671532	8.722944
502.833893	18.666334	-78.451439	-13.613306
503.267700	-13.594271	-36.221272	-70.733208
503.701477	-43.389080	-56.090469	-73.217995
504.135193	16.185331	-11.394314	-55.827007
504.568909	6.260421	15.903167	-43.407990
505.002502	21.147230	-68.512184	31.050627
505.436127	1.297408	-28.772097	-43.407990
505.869629	-58.292103	-33.738197	13.685334
506.303162	-23.524193	-90.877800	36.011284
506.736603	-110.482895	-63.543125	26.089691
507.169983	65.784882	25.826462	-30.991747
507.603363	-30.972702	33.267811	-50.859028
508.036621	-88.109589	-36.221272	18.647442
508.469940	-70.714287	-16.358948	-130.396469
508.903107	-40.905567	8.459638	-50.859028
509.336304	-21.041521	15.903167	-33.474701
509.769379	-73.198936	25.826462	26.089691
510.202484	-28.489717	20.865089	55.849365
510.635529	-18.559090	-85.906960	-48.375336
511.068481	-58.292103	-16.358948	-65.764099
511.501434	-55.807961	8.459638	-13.613306
511.934265	-40.905567	-6.430233	-53.342968
512.367126	-55.807961	-18.841421	23.608999
512.799927	-21.041521	-78.451439	-100.557076
513.232605	-6.147960	-11.394314	-43.407990
513.665344	-28.489717	-6.430233	28.570143
514.097961	-58.292103	-6.430233	-108.015579
514.530579	16.185331	-11.394314	-88.128647
514.963135	-58.292103	-21.323864	-6.166995
515.395691	8.741838	-21.323864	-16.095530
515.828064	-35.938992	-23.806549	-53.342968
516.260498	-60.776356	-58.574627	-3.685055
516.692871	-30.972702	-21.323864	18.647442
517.125183	-40.905567	23.345894	-11.131053
517.557373	-85.624306	43.188202	-11.131053
517.989624	-13.594271	-51.122604	8.722944
518.421753	-13.594271	28.307058	-1.203219
518.853943	-35.938992	-28.772097	-35.957901
519.286072	11.223152	13.422184	-75.702744
519.718018	43.470238	-1.466570	-83.157913
520.150024	-65.745041	-120.712181	-8.648904
520.581909	-75.683823	-51.122604	-55.827007
521.013855	-11.112152	-61.058891	60.807957
521.445679	-48.356289	-33.738197	-11.131053
521.877502	26.108580	-100.820885	-48.375336
522.309204	-43.389080	-13.876578	1.278512
522.740906	-38.422161	30.787552	-23.543098
523.172546	-40.905567	18.384180	-23.543098
523.604187	-21.041521	-26.289337	-11.131053
524.035767	-16.076628	-8.912288	50.890495
524.467224	-8.630004	48.147846	-6.166995
524.898682	38.510338	38.228279	6.241526
525.330078	50.909378	-56.090469	-43.407990
525.761475	-55.807961	-18.841421	-38.441204
526.192749	-6.147960	33.267811	-3.685055
526.624023	-38.422161	18.384180	-50.859028
527.055237	-88.109589	20.865089	21.128206
527.486389	-11.112152	-26.289337	-45.891609
527.917542	-26.006969	-95.849052	-26.025875
528.348572	-21.041521	-13.876578	28.570143
528.779663	-43.389080	-68.512184	18.647442
529.210571	-70.714287	-26.289337	-13.613306
529.641541	-40.905567	-23.806549	18.647442
530.072388	55.868382	-16.358948	-6.166995
530.503235	-28.489717	-36.221272	-21.060560
530.934082	-88.109589	67.981895	-23.543098
531.364746	-1.184322	-85.906960	-11.131053
531.795532	-28.489717	-53.606419	-26.025875
532.226135	-85.624306	-58.574627	36.011284
532.656738	50.909378	-41.188007	38.491318
533.087280	48.429859	-36.221272	-6.166995
533.517822	-8.630004	-23.806549	-40.924477
533.948242	-50.840118	-13.876578	-21.060560
534.378662	-33.455795	-66.027603	28.570143
534.809082	-28.489717	-33.738197	-30.991747
535.239319	-58.292103	-11.394314	-70.733208
535.669617	-11.112152	-53.606419	-6.166995
536.099792	-28.489717	-83.421631	40.971390
536.529968	1.297408	-125.686012	-26.025875
536.960083	-6.147960	-33.738197	-65.764099
537.390137	-16.076628	-16.358948	-63.279633
537.820190	16.185331	-13.876578	-11.131053
538.250183	-85.624306	-21.323864	31.050627
538.680115	-60.776356	-16.358948	-80.672844
539.109985	16.185331	3.496810	43.451355
539.539795	-35.938992	-68.512184	6.241526
539.969543	-11.112152	-88.392258	-40.924477
540.399292	6.260421	15.903167	38.491318
540.828979	-35.938992	-93.363441	26.089691
541.258606	-43.389080	-43.671532	-105.529312
541.688171	-33.455795	-36.221272	-18.577993
542.117737	-115.455849	-51.122604	-6.166995
542.547302	-75.683823	-36.221272	3.760004
542.976685	1.297408	-23.806549	95.506065
543.406128	-63.260578	-48.638763	3.760004
543.835388	-23.524193	-18.841421	11.204123
544.264771	-23.524193	13.422184	-50.859028
544.693970	-21.041521	15.903167	-30.991747
545.123230	-48.356289	-63.543125	-28.508759
545.552307	-88.109589	13.422184	-78.187744
545.981506	-115.455849	28.307058	50.890495
546.410583	3.779034	-135.635101	-50.859028
546.839539	-38.422161	-70.996735	-58.311016
547.268555	-21.041521	-48.638763	1.278512
547.697449	-28.489717	-61.058891	-50.859028
548.126282	-28.489717	-36.221272	-33.474701
548.555054	-1.184322	-26.289337	36.011284
548.983887	-70.714287	-28.772097	-30.991747
549.412598	-28.489717	-100.820885	-60.795273
549.841309	-83.138985	-28.772097	-85.643227
550.269958	-115.455849	-16.358948	-13.613306
550.698486	-8.630004	-78.451439	-48.375336
551.127075	26.108580	-26.289337	-130.396469
551.555481	3.779034	-75.966431	-40.924477
551.983948	11.223152	3.496810	-65.764099
552.412292	38.510338	-13.876578	-1.203219
552.840698	-28.489717	-26.289337	-55.827007
553.268860	-30.972702	-53.606419	-70.733208
553.697205	8.741838	-21.323864	16.166439
554.125366	-35.938992	-21.323864	-18.577993
554.553467	-55.807961	-83.421631	-30.991747
554.981628	-68.229614	-61.058891	-73.217995
555.409607	-68.229614	-73.481529	6.241526
555.837646	-93.080750	-53.606419	-23.543098
556.265564	-30.972702	-75.966431	31.050627
556.693481	-68.229614	-11.394314	-55.827007
557.121338	-50.840118	-11.394314	-95.585419
557.549133	-13.594271	-3.948282	-30.991747
557.976929	-53.324051	-41.188007	-13.613306
558.404602	-90.595116	23.345894	-83.157913
558.832275	-58.292103	-51.122604	-85.643227
559.259888	-65.745041	15.903167	-33.474701
559.687439	-43.389080	-43.671532	-55.827007
560.114929	-50.840118	-21.323864	-53.342968
560.542419	-112.969383	-13.876578	6.241526
560.969788	1.297408	15.903167	-38.441204
561.397156	-23.524193	60.544884	18.647442
561.824524	-45.872566	-73.481529	-78.187744
562.251770	-13.594271	-23.806549	-73.217995
562.679016	-38.422161	-78.451439	-26.025875
563.106140	1.297408	-16.358948	-45.891609
563.533264	6.260421	-23.806549	-11.131053
563.960327	3.779034	28.307058	16.166439
564.387329	43.470238	1.015172	-33.474701
564.814331	21.147230	33.267811	-80.672844
565.241272	-43.389080	-36.221272	-53.342968
565.668213	-100.538155	-33.738197	83.116127
566.094971	-13.594271	13.422184	-30.991747
566.521790	-48.356289	-46.155025	-13.613306
566.948425	-58.292103	-11.394314	-48.375336
567.375183	-43.389080	-38.704586	-58.311016
567.801819	-45.872566	-41.188007	-80.672844
568.228394	-26.006969	25.826462	-75.702744
568.654846	-43.389080	-90.877800	-35.957901
569.081421	-85.624306	-8.912288	-23.543098
569.507874	65.784882	-11.394314	16.166439
569.934265	-30.972702	20.865089	31.050627
570.360596	6.260421	-36.221272	21.128206
570.786865	-43.389080	-75.966431	8.722944
571.213074	-115.455849	-48.638763	-11.131053
571.639282	-53.324051	-53.606419	-60.795273
572.065430	-48.356289	8.459638	-60.795273
572.491516	-65.745041	-13.876578	40.971390
572.917603	21.147230	30.787552	31.050627
573.343567	-33.455795	-38.704586	13.685334
573.769531	-38.422161	-41.188007	-11.131053
574.195435	-28.489717	-26.289337	-43.407990
574.621277	-53.324051	-1.466570	-23.543098
575.047119	-50.840118	65.503082	31.050627
575.472839	6.260421	-33.738197	-65.764099
575.898560	-95.566483	-48.638763	58.328716
576.324158	-58.292103	-3.948282	48.410843
576.749817	-50.840118	-11.394314	-33.474701
577.175293	-3.666021	-63.543125	-1.203219
577.600830	6.260421	-16.358948	53.370052
578.026306	-35.938992	3.496810	-1.203219
578.451721	-48.356289	13.422184	18.647442
578.877136	-60.776356	-58.574627	-26.025875
579.302429	-13.594271	-31.255095	26.089691
579.727661	-6.147960	-90.877800	33.531006
580.152832	-18.559090	-26.289337	-50.859028
580.578064	-21.041521	-93.363441	-11.131053
581.003113	-50.840118	-16.358948	-28.508759
581.428223	-53.324051	-46.155025	-16.095530
581.853271	-23.524193	-38.704586	-3.685055
582.278198	-3.666021	-78.451439	-73.217995
582.703125	-21.041521	15.903167	-38.441204
583.127930	-45.872566	23.345894	11.204123
583.552795	53.388931	-33.738197	8.722944
583.977539	-28.489717	-1.466570	-70.733208
584.402283	-58.292103	-3.948282	21.128206
584.826965	-28.489717	-3.948282	-38.441204
585.251587	-93.080750	-46.155025	36.011284
585.676208	13.704361	23.345894	-26.025875
586.100647	-6.147960	-3.948282	-26.025875
586.525208	-70.714287	-6.430233	-98.071259
586.949524	-40.905567	23.345894	28.570143
587.373962	-30.972702	23.345894	31.050627
587.798218	-28.489717	33.267811	-38.441204
588.222534	45.950100	-16.358948	38.491318
588.646729	11.223152	3.496810	21.128206
589.070984	-90.595116	30.787552	48.410843
589.495117	-23.524193	28.307058	43.451355
589.919128	-1.184322	72.939484	50.890495
590.343201	-40.905567	107.630577	55.849365
590.767151	-65.745041	-33.738197	16.166439
591.191101	-35.938992	3.496810	38.491318
591.614990	-21.041521	30.787552	58.328716
592.038818	-80.653786	58.065624	31.050627
592.462524	-83.138985	30.787552	36.011284
592.886292	-58.292103	20.865089	48.410843
593.310059	55.868382	18.384180	-16.095530
593.733582	-1.184322	58.065624	-3.685055
594.157227	-75.683823	5.978343	53.370052
594.580750	-26.006969	100.198471	33.531006
595.004272	-65.745041	1.015172	-13.613306
595.427673	-8.630004	85.331375	8.722944
595.851074	-3.666021	48.147846	11.204123
596.274353	-60.776356	137.349838	36.011284
596.697632	26.108580	15.903167	40.971390
597.120911	63.305977	70.460739	16.166439
597.544067	-21.041521	70.460739	48.410843
597.967224	-16.076628	3.496810	85.594345
598.390320	-18.559090	67.981895	40.971390
598.813354	-103.024216	129.921387	60.807957
599.236328	-8.630004	167.054688	85.594345
599.659241	-33.455795	70.460739	-3.685055
600.082153	-112.969383	77.896523	80.637810
600.505005	-63.260578	85.331375	107.893311
600.927795	-63.260578	72.939484	142.564316
601.350525	-95.566483	107.630577	209.374039
601.773254	-38.422161	60.544884	68.244942
602.195862	-40.905567	80.374954	43.451355
602.618408	-1.184322	184.375809	102.938744
603.040955	-65.745041	132.397690	102.938744
603.463440	-75.683823	233.837738	70.723633
603.885925	-53.324051	142.301727	117.801353
604.308350	-88.109589	139.825836	152.466690
604.730652	-21.041521	127.444992	110.370506
605.152893	-3.666021	137.349838	120.278152
605.575195	-105.510239	246.196960	95.506065
605.997375	-53.324051	194.271271	95.506065
606.419495	6.260421	194.271271	226.683212
606.841553	16.185331	241.253601	157.417206
607.263672	-63.260578	181.901627	226.683212
607.685608	-58.292103	154.679398	145.040085
608.107605	-8.630004	253.611343	258.815948
608.529480	-110.482895	216.530563	234.099930
608.951294	-21.041521	209.111755	105.416008
609.373108	-60.776356	352.385986	154.942062
609.794800	-53.324051	280.789917	216.792847
610.216553	-26.006969	258.553864	243.987549
610.638123	1.297408	428.830200	246.459229
611.059753	-30.972702	303.018188	192.059982
611.481262	13.704361	300.548737	342.777222
611.902832	-13.594271	330.175171	199.480881
612.324219	16.185331	389.386475	318.094391
612.745605	-78.168816	389.386475	300.810638
613.166931	8.741838	418.971527	335.373383
613.588196	68.263817	384.454376	347.712708
614.009460	-18.559090	428.830200	379.783447
614.430664	80.656815	497.798462	429.091553
614.851807	-26.006969	470.712524	340.309448
615.272827	-48.356289	512.567810	372.383972
615.693909	-26.006969	544.556763	414.303162
616.114929	-107.996513	470.712524	401.976776
616.535889	-26.006969	505.183563	461.121552
616.956787	-132.864746	524.872986	389.648163
617.377563	-3.666021	554.396240	434.020386
617.798340	-70.714287	591.281677	443.876740
618.219055	-43.389080	593.739990	397.045654
618.639832	-78.168816	598.656128	483.286926
619.060364	18.666334	711.631775	584.166992
619.481018	-16.076628	745.978088	576.790649
619.901611	1.297408	701.815186	579.249512
620.322083	23.627890	868.503113	574.331970
620.742493	-33.455795	763.144775	542.357483
621.162842	-6.147960	812.168762	554.657227
621.583191	-68.229614	755.788086	574.331970
622.003418	-11.112152	819.519165	623.493103
622.423706	-40.905567	888.087158	655.428345
622.843872	-78.168816	1010.363892	797.725037
623.264038	-110.482895	951.697266	689.803223
623.684143	-80.653786	927.238770	682.438538
624.104126	-35.938992	983.481140	716.799622
624.524170	-21.041521	1049.448242	797.725037
624.944031	-33.455795	1098.273804	741.332764
625.364014	-23.524193	1071.423584	770.760620
625.783752	60.826836	1071.423584	905.478271
626.203552	-40.905567	1122.674072	871.211243
626.623230	-30.972702	1171.450684	885.899170
627.042969	-33.455795	1220.194946	885.899170
627.462585	58.347591	1239.683716	934.836670
627.882141	48.429859	1317.588379	1013.066528
628.301697	-16.076628	1261.602661	1039.938110
628.721130	-16.076628	1327.320679	932.390564
629.140625	16.185331	1429.435669	1061.916748
629.559998	-55.807961	1456.157593	1059.474976
629.979309	-55.807961	1407.565308	1130.251709
630.398560	-26.006969	1436.724243	1176.585327
630.817810	-40.905567	1444.012451	1261.861084
631.237000	-16.076628	1701.089233	1225.326172
631.656067	-35.938992	1575.080566	1342.174927
632.075195	-68.229614	1652.647949	1351.904053
632.494202	-21.041521	1613.873779	1254.555420
632.913208	-80.653786	1742.241333	1361.632202
633.332092	26.108580	1836.570801	1439.411499
633.750977	16.185331	2017.672363	1400.531616
634.169739	-55.807961	1938.036011	1502.549561
634.588562	33.549892	2099.643799	1577.763062
635.007263	33.549892	2311.444336	1580.188232
635.425964	-48.356289	2275.378174	1732.817017
635.844543	-18.559090	2191.166260	1776.372437
636.263123	-48.356289	2229.673340	1865.829834
636.681641	-53.324051	2313.848389	1928.634277
637.100037	-68.229614	2390.738281	1926.219604
637.518494	-40.905567	2402.746582	2013.104126
637.936829	-145.302963	2541.923828	1906.899658
638.355164	-40.905567	2685.677734	2029.987915
638.773438	-78.168816	2716.794922	2152.897705
639.191650	-98.052200	2731.153320	2164.938232
639.609863	1.297408	2817.257813	2287.656982
640.027893	1.297408	2879.395264	2309.295410
640.445984	-16.076628	3039.333740	2369.374756
640.863953	-6.147960	3020.250488	2345.347656
641.281921	-38.422161	3170.430908	2527.790527
641.699829	-48.356289	3222.820557	2542.178467
642.117676	-43.389080	3327.518066	2539.780273
642.535461	28.589165	3417.850586	2695.507324
642.953247	31.069647	3517.599365	2736.192871
643.370972	40.990273	3667.040771	2807.947998
643.788635	-3.666021	3768.917480	2877.259277
644.206177	-26.006969	3821.002686	2915.478516
644.623718	16.185331	3875.427979	3184.973877
645.041260	13.704361	3953.467285	3077.742188
645.458618	-3.666021	4107.016113	3265.916992
645.876099	18.666334	4335.755371	3432.358887
646.293396	-100.538155	4420.528320	3477.488770
646.710693	-93.080750	4540.512207	3619.873535
647.127991	-40.905567	4756.631348	3679.143311
647.545166	31.069647	4641.576172	3598.528809
647.962341	-58.292103	4885.638184	3844.920166
648.379333	-58.292103	4948.916016	3885.140625
648.796448	-48.356289	5005.133789	4097.823242
649.213379	-21.041521	5460.903809	4208.725098
649.630310	6.260421	5409.571289	4253.525391
650.047180	-6.147960	5645.051758	4354.849121
650.463989	-13.594271	5738.182617	4524.300781
650.880859	-1.184322	5877.746582	4533.707520
651.297546	-38.422161	6165.673340	4695.845215
651.714233	-40.905567	6228.276855	4885.887207
652.130859	-30.972702	6531.575684	4944.478027
652.547485	-35.938992	6605.552246	5108.376465
652.963928	16.185331	6778.764160	5360.799316
653.380432	-21.041521	6979.394043	5386.478516
653.796814	43.470238	7071.530762	5484.476074
654.213196	-26.006969	7409.567383	5824.513184
654.629578	-3.666021	7476.151855	5898.913574
655.045837	-18.559090	7826.873535	6131.125000
655.462036	13.704361	8023.602051	6203.020996
655.878174	-3.666021	8199.495117	6311.945801
656.294312	3.779034	8443.535156	6730.533691
656.710327	-13.594271	8725.797852	6802.085938
657.126404	-33.455795	8753.083008	7016.500977
657.542358	-18.559090	9129.969727	7055.655273
657.958252	-28.489717	9643.715820	7177.650879
658.374084	68.263817	9578.186523	7591.113281
658.789917	-43.389080	9806.281250	7657.603516
659.205688	-26.006969	9982.189453	7930.092773
659.621338	-90.595116	10337.875000	8213.433594
660.037048	-1.184322	10591.744141	8441.499023
660.452637	45.950100	10988.561523	8726.039063
660.868164	-1.184322	11196.663086	8876.038086
661.283691	-3.666021	11444.694336	9048.563477
661.699158	-55.807961	11877.314453	9055.368164
662.114502	-78.168816	12197.743164	9460.850586
662.529846	-53.324051	12479.879883	9723.002930
662.945129	-100.538155	13003.067383	9998.204102
663.360413	-8.630004	13330.488281	10293.136719
663.775635	-38.422161	13551.438477	10645.846680
664.190674	-60.776356	14021.366211	10625.649414
664.605835	-38.422161	14492.621094	11266.207031
665.020813	-98.052200	14664.188477	11511.903320
665.435791	-28.489717	15048.761719	11801.808594
665.850769	-112.969383	15292.458008	12020.033203
666.265625	-38.422161	15827.596680	12440.152344
666.680420	11.223152	16132.154297	12704.190430
667.095215	-28.489717	17022.978516	13142.738281
667.509949	-63.260578	17407.892578	13421.337891
667.924622	-70.714287	17635.287109	13668.689453
668.339233	-73.198936	18048.468750	14360.809570
668.753784	-21.041521	18660.552734	14708.397461
669.168335	-26.006969	18778.607422	14662.223633
669.582825	-6.147960	19550.537109	15231.233398
669.997192	68.263817	19935.611328	15544.998047
670.411560	-98.052200	20594.621094	16062.289063
670.825867	16.185331	21122.773438	16471.789063
671.240173	36.030167	21607.554688	16778.185547
671.654358	-35.938992	22255.431641	17196.000000
672.068481	-18.559090	22622.609375	17683.617188
672.482605	-55.807961	23203.712891	18109.908203
672.896667	-13.594271	24065.857422	18682.646484
673.310669	-18.559090	24584.892578	18892.525391
673.724609	-16.076628	24810.373047	19412.968750
674.138489	8.741838	25779.916016	19955.537109
674.552307	-3.666021	26518.335938	20649.619141
674.966064	-83.138985	27404.361328	20943.246094
675.379822	-58.292103	27653.275391	21359.853516
675.793579	-80.653786	28549.492188	21787.783203
676.207153	-13.594271	29375.076172	22427.121094
676.620789	-73.198936	29976.039063	23093.826172
677.034241	-11.112152	30995.328125	23726.308594
677.447754	-38.422161	31549.255859	24169.845703
677.861206	-70.714287	32005.109375	24781.863281
678.274597	-13.594271	33293.628906	25348.250000
678.687866	-40.905567	33755.226563	26046.128906
679.101135	-58.292103	34936.921875	26636.189453
679.514404	-88.109589	35650.195313	27277.947266
679.927551	-40.905567	36695.507813	27653.509766
680.340698	45.950100	37198.449219	28371.757813
680.753723	-30.972702	37954.773438	29159.425781
681.166748	-8.630004	39084.945313	29829.369141
681.579712	-28.489717	39894.542969	30472.609375
681.992615	-90.595116	40691.398438	31097.910156
682.405457	-1.184322	41549.945313	31907.519531
682.818298	-35.938992	42734.714844	32538.759766
683.231018	-48.356289	43308.437500	33276.109375
683.643738	13.704361	43989.574219	33719.968750
684.056335	-21.041521	44596.964844	34094.835938
684.468994	-43.389080	45405.179688	34746.593750
684.881531	-70.714287	46693.515625	35526.406250
685.293945	8.741838	47444.339844	36314.800781
685.706482	-28.489717	48257.648438	36443.250000
686.118774	-8.630004	48667.121094	37014.757813
686.531128	-75.683823	49015.414063	37571.144531
686.943481	-40.905567	50329.128906	37650.992188
687.355713	23.627890	50660.195313	38234.851563
687.767883	-13.594271	51255.898438	38481.609375
688.179932	8.741838	51682.937500	38579.492188
688.592041	-55.807961	52034.308594	38929.109375
689.004089	-18.559090	52254.277344	39514.027344
689.416016	-65.745041	52797.105469	39319.562500
689.827881	-75.683823	53092.058594	39384.355469
690.239868	-115.455849	52598.199219	39143.191406
690.651611	18.666334	53438.835938	39373.183594
691.063354	-83.138985	53048.238281	39306.160156
691.475098	-98.052200	53312.425781	39400.000000
691.886719	-40.905567	53829.347656	39161.042969
692.298340	-40.905567	53418.289063	38786.515625
692.709900	-55.807961	53811.921875	39094.109375
693.121460	-142.815079	52960.863281	38897.906250
693.532837	-43.389080	53373.828125	38835.519531
693.944214	-35.938992	53220.625000	38526.093750
694.355652	-21.041521	52797.105469	38345.976563
694.766846	-65.745041	52306.343750	37879.535156
695.178101	-16.076628	52329.160156	37296.210938
695.589294	-68.229614	51711.484375	37121.117188
696.000366	-83.138985	51733.710938	36726.757813
696.411438	-1.184322	51371.285156	36631.507813
696.822510	-23.524193	50572.457031	35758.953125
697.233459	-45.872566	50365.011719	35887.398438
697.644409	-11.112152	49917.371094	34917.214844
698.055298	-16.076628	49254.187500	34345.398438
698.466064	-68.229614	48706.199219	33935.148438
698.876831	-35.938992	48287.855469	33120.695313
699.287537	-63.260578	47319.550781	32607.634766
699.698181	8.741838	46815.539063	31847.486328
700.108826	-38.422161	45231.648438	31340.404297
700.519348	1.297408	45167.421875	30951.060547
700.929810	-50.840118	44070.988281	30092.015625
701.340271	-6.147960	43758.175781	28707.693359
701.750732	-105.510239	42483.808594	28431.818359
702.161011	-30.972702	41472.339844	27566.826172
702.571350	-68.229614	40474.699219	26704.996094
702.981567	-65.745041	39679.394531	25968.535156
703.391724	31.069647	38163.519531	25281.839844
703.801880	-11.112152	37597.523438	24207.382813
704.211914	-73.198936	35818.507813	23582.980469
704.621948	18.666334	35100.875000	22523.871094
705.031921	-18.559090	34145.605469	22158.970703
705.441895	-78.168816	33391.296875	21026.541016
705.851746	33.549892	32471.863281	20281.689453
706.261536	-43.389080	30641.513672	20062.777344
706.671265	-18.559090	29953.781250	18940.626953
707.081055	48.429859	28809.812500	18162.371094
707.490662	16.185331	27891.148438	17556.808594
707.900330	-63.260578	26800.216797	16907.269531
708.309814	40.990273	25684.642578	15805.910156
708.719299	-48.356289	24604.783203	15593.246094
709.128784	-18.559090	23933.443359	14697.404297
709.538147	40.990273	22822.824219	14246.320313
709.947510	-3.666021	21629.501953	13427.966797
710.356750	-28.489717	20734.832031	12817.241211
710.766052	88.091331	20005.640625	12511.190430
711.175171	-35.938992	19430.234375	11763.926758
711.584290	-43.389080	18221.162109	11111.901367
711.993347	-6.147960	17403.519531	10820.779297
712.402405	-30.972702	16793.269531	10266.144531
712.811401	-48.356289	16105.869141	9876.458008
713.220276	-68.229614	15375.847656	9304.685547
713.629150	-58.292103	14217.457031	8685.102539
714.037964	-73.198936	13842.768555	8186.040039
714.446777	18.666334	13277.426758	8014.701172
714.855408	28.589165	12526.490234	7591.113281
715.264099	-38.422161	11937.438477	7324.810547
715.672668	3.779034	11274.911133	6912.796875
716.081177	-105.510239	10795.882813	6591.930176
716.489746	3.779034	10362.606445	6156.641602
716.898132	-35.938992	9704.700195	5840.791992
717.306519	-6.147960	9202.504883	5663.930176
717.714844	-16.076628	8757.629883	5316.430664
718.123108	-6.147960	8272.525391	4991.330078
718.531372	55.868382	7849.764160	4799.116699
718.939514	-16.076628	7742.144531	4580.727539
719.347595	18.666334	7193.510254	4310.089355
719.755676	28.589165	6684.104492	4107.265625
720.163696	-80.653786	6297.800781	3762.064453
720.571716	-1.184322	6045.011719	3781.008301
720.979614	-23.524193	5798.680664	3467.989014
721.387451	8.741838	5449.239746	3242.116943
721.795227	8.741838	5257.777832	3106.348633
722.202942	-11.112152	4864.538086	2977.552734
722.610718	6.260421	4500.531738	2760.117188
723.018311	40.990273	4521.699707	2518.197266
723.425903	-125.403168	4276.847168	2580.534180
723.833374	-8.630004	3920.366455	2258.797607
724.240906	16.185331	3733.390625	2273.228760
724.648376	31.069647	3603.021240	2116.765869
725.055725	-58.292103	3370.317627	2109.537842
725.463013	-28.489717	3234.723389	1904.484253
725.870300	16.185331	3113.246582	1735.237427
726.277466	-68.229614	2776.606934	1655.327515
726.684631	-11.112152	2759.863281	1694.081787
727.091797	50.909378	2673.706787	1492.839478
727.498779	-45.872566	2333.076904	1441.840942
727.905823	1.297408	2409.950684	1504.976929
728.312805	-70.714287	2256.136963	1361.632202
728.719666	-40.905567	2198.387939	1356.768311
729.126526	-26.006969	2169.498535	1227.762451
729.533264	-18.559090	1921.133667	1193.648315
729.940063	-105.510239	1887.318848	1159.518433
730.346680	-8.630004	1838.988159	1113.173950
730.753357	-23.524193	1747.081543	1083.888306
731.159851	43.470238	1722.878174	1020.396057
731.566406	3.779034	1536.268311	893.242065
731.972900	43.470238	1390.550659	841.826233
732.379272	-95.566483	1361.374146	856.520264
732.785645	-35.938992	1332.186401	724.160583
733.191895	-23.524193	1249.426514	768.308777
733.598206	18.666334	1159.259644	711.891907
734.004333	-35.938992	1132.432129	662.795715
734.410522	-90.595116	1051.890015	603.832947
734.816528	-38.422161	1066.540894	675.073364
735.222656	-1.184322	1083.629517	598.916931
735.628662	26.108580	880.743958	608.748596
736.034546	-16.076628	1000.589539	475.899353
736.440430	-21.041521	846.464783	554.657227
736.846252	28.589165	868.503113	520.212402
737.252014	-1.184322	765.596558	463.584747
737.657715	-28.489717	775.403992	507.906158
738.063354	-38.422161	691.997437	426.627167
738.468933	-68.229614	721.446655	298.341248
738.874512	-60.776356	736.166504	355.115082
739.280029	83.135002	657.623718	377.317017
739.685486	-83.138985	576.530029	397.045654
740.090881	-1.184322	662.535400	357.582397
740.496216	-30.972702	583.906128	313.156738
740.901550	-8.630004	478.100708	313.156738
741.306702	-65.745041	490.412537	372.383972
741.711914	-65.745041	446.079163	206.900864
742.117004	-21.041521	480.563293	352.647675
742.522095	-53.324051	478.100708	224.210739
742.927124	6.260421	460.860291	281.052032
743.332031	28.589165	448.542816	263.758057
743.737000	-35.938992	428.830200	258.815948
744.141785	36.030167	372.122345	276.111298
744.546631	-23.524193	364.721832	216.792847
744.951355	-100.538155	243.725388	221.738297
745.356079	-38.422161	391.852448	248.930832
745.760620	6.260421	335.111633	263.758057
746.165283	-55.807961	283.260132	197.007431
746.569824	6.260421	283.260132	149.991211
746.974243	-21.041521	273.378784	243.987549
747.378723	-73.198936	295.609680	140.088440
747.783020	-23.524193	263.495819	80.637810
748.187378	-83.138985	204.165283	110.370506
748.591614	16.185331	219.003357	43.451355
748.995850	16.185331	169.529343	73.202362
749.399963	60.826836	246.196960	75.681000
749.804077	-18.559090	211.584702	70.723633
750.208130	-55.807961	228.893250	130.184036
750.612122	-26.006969	223.948502	73.202362
751.016052	21.147230	152.204010	68.244942
751.419922	-26.006969	179.427338	31.050627
751.823792	-55.807961	265.966766	125.231300
752.227478	-11.112152	231.365540	97.983635
752.631226	1.297408	167.054688	75.681000
753.034851	-33.455795	149.728653	95.506065
753.438477	-78.168816	100.198471	90.550346
753.842102	-16.076628	149.728653	43.451355
754.245544	11.223152	100.198471	-8.648904
754.648987	-78.168816	60.544884	53.370052
755.052368	-63.260578	55.586403	107.893311
755.455750	-73.198936	100.198471	63.286964
755.859009	-3.666021	55.586403	-1.203219
756.262268	-38.422161	-11.394314	80.637810
756.665405	-13.594271	132.397690	38.491318
757.068542	6.260421	77.896523	38.491318
757.471680	-48.356289	45.668076	78.159523
757.874634	-40.905567	35.748096	95.506065
758.277588	-23.524193	80.374954	70.723633
758.680420	-43.389080	95.243134	53.370052
759.083374	1.297408	48.147846	8.722944
759.486084	-100.538155	38.228279	60.807957
759.888916	-48.356289	75.417984	-33.474701
760.291504	-21.041521	110.107651	11.204123
760.694214	-95.566483	132.397690	53.370052
761.096802	-26.006969	92.765320	40.971390
761.499268	3.779034	25.826462	3.760004
761.901733	-21.041521	35.748096	-11.131053
762.304199	-6.147960	48.147846	48.410843
762.706543	-23.524193	48.147846	-13.613306
763.108826	45.950100	-26.289337	80.637810
763.511108	-58.292103	28.307058	-11.131053
763.913208	-60.776356	112.584763	6.241526
764.315369	-48.356289	-8.912288	55.849365
764.717529	28.589165	8.459638	23.608999
765.119568	-93.080750	10.940963	31.050627
765.521545	36.030167	72.939484	122.754707
765.923462	-1.184322	58.065624	38.491318
766.325317	-11.112152	70.460739	18.647442
766.727112	-83.138985	-1.466570	-55.827007
767.128845	38.510338	18.384180	-13.613306
767.530518	8.741838	-6.430233	-16.095530
767.932251	-45.872566	-1.466570	1.278512
768.333862	-55.807961	-16.358948	68.244942
768.735413	-35.938992	-28.772097	21.128206
769.136841	-13.594271	-23.806549	-21.060560
769.538269	-63.260578	15.903167	13.685334
769.939636	-28.489717	35.748096	58.328716
770.341003	-26.006969	-16.358948	16.166439
770.742249	-50.840118	85.331375	-53.342968
771.143433	-28.489717	33.267811	-18.577993
771.544617	31.069647	-6.430233	-50.859028
771.945740	-58.292103	90.287529	-26.025875
772.346802	-13.594271	50.627377	-103.043144
772.747803	-75.683823	28.307058	-53.342968
773.148682	-11.112152	35.748096	21.128206
773.549622	3.779034	5.978343	21.128206
773.950439	-30.972702	63.024036	-3.685055
774.351196	-98.052200	-21.323864	21.128206
774.751892	-85.624306	3.496810	-16.095530
775.152588	-93.080750	-6.430233	-65.764099
775.553162	3.779034	50.627377	-53.342968
775.953735	-16.076628	-1.466570	-43.407990
776.354309	-75.683823	5.978343	-6.166995
776.754639	38.510338	58.065624	8.722944
777.155090	-38.422161	48.147846	18.647442
777.555420	11.223152	63.024036	-85.643227
777.955750	38.510338	-1.466570	-40.924477
778.355896	65.784882	1.015172	1.278512
778.756104	-18.559090	-16.358948	21.128206
779.156189	-23.524193	-88.392258	-50.859028
779.556274	-80.653786	53.106941	-8.648904
779.956299	-38.422161	45.668076	36.011284
780.356201	-48.356289	-83.421631	-75.702744
780.756165	-45.872566	-3.948282	3.760004
781.156006	-11.112152	-16.358948	-16.095530
781.555786	-33.455795	-11.394314	-33.474701
781.955505	-21.041521	63.024036	-80.672844
782.355225	-100.538155	-21.323864	-65.764099
782.754761	-73.198936	5.978343	-3.685055
783.154358	-43.389080	60.544884	-33.474701
783.553894	11.223152	-38.704586	-55.827007
783.953369	-48.356289	50.627377	-3.685055
784.352783	-65.745041	-6.430233	-83.157913
784.752075	-90.595116	-26.289337	-28.508759
785.151367	-68.229614	48.147846	-43.407990
785.550598	58.347591	8.459638	-3.685055
785.949768	-112.969383	-95.849052	-60.795273
786.348877	-16.076628	-31.255095	-40.924477
786.747986	11.223152	43.188202	-3.685055
787.147034	-35.938992	-78.451439	-73.217995
787.545959	-28.489717	58.065624	-13.613306
787.944885	6.260421	28.307058	-53.342968
788.343750	-58.292103	8.459638	-75.702744
788.742493	53.388931	-6.430233	-33.474701
789.141235	-53.324051	25.826462	-58.311016
789.539917	-1.184322	48.147846	38.491318
789.938538	-55.807961	-13.876578	-80.672844
790.337158	-35.938992	-33.738197	28.570143
790.735718	-11.112152	-26.289337	11.204123
791.134094	-53.324051	-18.841421	33.531006
791.532532	-6.147960	8.459638	-48.375336
791.930847	-23.524193	-18.841421	-40.924477
792.329224	-3.666021	-13.876578	8.722944
792.727417	-21.041521	-33.738197	26.089691
793.125610	-40.905567	28.307058	3.760004
793.523682	-50.840118	8.459638	-23.543098
793.921753	-30.972702	-36.221272	-65.764099
794.319824	-1.184322	-26.289337	-3.685055
794.717773	-28.489717	3.496810	-23.543098
795.115723	16.185331	25.826462	-55.827007
795.513550	3.779034	-38.704586	-50.859028
795.911377	-75.683823	-18.841421	-53.342968
796.309082	-8.630004	3.496810	75.681000
796.706787	-88.109589	-26.289337	-40.924477
797.104370	-33.455795	-46.155025	-85.643227
797.501953	-88.109589	-61.058891	-63.279633
797.899536	40.990273	-110.765678	-80.672844
798.296936	-65.745041	13.422184	-103.043144
798.694397	-8.630004	55.586403	11.204123
799.091736	-3.666021	-13.876578	1.278512
799.489014	-55.807961	-18.841421	-38.441204
799.886230	-26.006969	-66.027603	-53.342968
800.283447	-177.654800	-56.090469	-13.613306
800.680542	-11.112152	-31.255095	18.647442
801.077637	-6.147960	-115.738647	6.241526
801.474670	40.990273	-100.820885	28.570143
801.871643	-11.112152	40.708359	-11.131053
802.268555	-50.840118	5.978343	8.722944
802.665405	-35.938992	-51.122604	-11.131053
803.062256	-125.403168	53.106941	-105.529312
803.458923	-63.260578	3.496810	-13.613306
803.855652	-55.807961	-3.948282	-78.187744
804.252258	-55.807961	-6.430233	-45.891609
804.648804	-48.356289	-41.188007	-70.733208
805.045410	-23.524193	28.307058	53.370052
805.441833	-130.377533	-23.806549	11.204123
805.838257	18.666334	1.015172	-53.342968
806.234619	-83.138985	23.345894	43.451355
806.630859	-33.455795	-8.912288	-11.131053
807.027100	38.510338	-113.252045	38.491318
807.423279	-75.683823	40.708359	-63.279633
807.819458	18.666334	8.459638	-68.248535
808.215515	21.147230	-16.358948	-3.685055
808.611572	40.990273	18.384180	-40.924477
809.007507	-18.559090	43.188202	-35.957901
809.403381	-30.972702	-8.912288	-88.128647
809.799194	-33.455795	18.384180	-21.060560
810.195068	3.779034	-11.394314	-58.311016
810.590759	-16.076628	-58.574627	58.328716
810.986450	-26.006969	-56.090469	-1.203219
811.382080	-53.324051	-6.430233	-60.795273
811.777649	-68.229614	8.459638	26.089691
812.173157	-73.198936	23.345894	-140.346375
812.568665	6.260421	-46.155025	-60.795273
812.964050	-45.872566	75.417984	-112.988319
813.359375	16.185331	1.015172	-60.795273
813.754639	-3.666021	28.307058	-53.342968
814.149841	-63.260578	-13.876578	-16.095530
814.545105	-38.422161	-113.252045	-58.311016
814.940186	-80.653786	-21.323864	-100.557076
815.335266	-45.872566	3.496810	18.647442
815.730347	-88.109589	-21.323864	3.760004
816.125244	1.297408	23.345894	3.760004
816.520203	-120.429359	15.903167	-35.957901
816.914978	11.223152	3.496810	-48.375336
817.309753	-1.184322	-48.638763	-26.025875
817.704468	3.779034	-63.543125	-23.543098
818.099182	-58.292103	-18.841421	-18.577993
818.493774	6.260421	-18.841421	38.491318
818.888367	11.223152	53.106941	40.971390
819.282898	16.185331	23.345894	8.722944
819.677307	-68.229614	-21.323864	8.722944
820.071716	-88.109589	87.809502	-70.733208
820.466003	-6.147960	33.267811	6.241526
820.860291	-43.389080	3.496810	23.608999
821.254517	-90.595116	-1.466570	-68.248535
821.648743	8.741838	15.903167	-40.924477
822.042786	-21.041521	65.503082	-16.095530
822.436890	-23.524193	-21.323864	-38.441204
822.830872	11.223152	-33.738197	-43.407990
823.224792	-30.972702	13.422184	-26.025875
823.618774	-16.076628	-8.912288	-50.859028
824.012512	-40.905567	10.940963	-13.613306
824.406311	8.741838	-6.430233	-58.311016
824.799988	-3.666021	23.345894	-21.060560
825.193665	13.704361	23.345894	-48.375336
825.587280	-65.745041	13.422184	-6.166995
825.980835	-43.389080	-51.122604	-13.613306
826.374329	-23.524193	-41.188007	36.011284
826.767761	23.627890	15.903167	11.204123
827.161194	-75.683823	-21.323864	18.647442
827.554443	-55.807961	13.422184	-3.685055
827.947754	-16.076628	-33.738197	3.760004
828.340942	3.779034	-61.058891	3.760004
828.734131	-13.594271	10.940963	-68.248535
829.127136	21.147230	-23.806549	26.089691
829.520264	13.704361	-36.221272	23.608999
829.913208	-93.080750	-56.090469	-95.585419
830.306152	-35.938992	-3.948282	-16.095530
830.699097	-8.630004	-75.966431	-21.060560
831.091797	-28.489717	1.015172	-8.648904
831.484619	-35.938992	1.015172	33.531006
831.877319	3.779034	-6.430233	-13.613306
832.270020	-30.972702	-8.912288	48.410843
832.662537	-70.714287	58.065624	-6.166995
833.055054	-93.080750	-61.058891	-1.203219
833.447510	36.030167	33.267811	6.241526
833.839966	-28.489717	-80.936409	-45.891609
834.232361	-105.510239	87.809502	-122.935211
834.624634	-132.864746	20.865089	16.166439
835.016907	-78.168816	53.106941	-90.614174
835.409058	-75.683823	23.345894	-33.474701
835.801208	-21.041521	-31.255095	-33.474701
836.193298	-38.422161	38.228279	-8.648904
836.585327	-35.938992	-63.543125	-73.217995
836.977295	-43.389080	25.826462	-50.859028
837.369202	-3.666021	-3.948282	-16.095530
837.761047	18.666334	28.307058	-50.859028
838.152832	-28.489717	-70.996735	-103.043144
838.544617	18.666334	-21.323864	-33.474701
838.936218	40.990273	-36.221272	-3.685055
839.327942	-43.389080	-41.188007	-45.891609
839.719421	13.704361	-36.221272	-45.891609
840.111023	-21.041521	-11.394314	-11.131053
840.502380	-68.229614	-13.876578	-18.577993
840.893860	33.549892	-53.606419	-55.827007
841.285217	-18.559090	-33.738197	-48.375336
841.676453	-78.168816	20.865089	-23.543098
842.067749	36.030167	35.748096	38.491318
842.458862	-53.324051	10.940963	36.011284
842.849976	-90.595116	13.422184	13.685334
843.241028	-115.455849	13.422184	13.685334
843.632019	18.666334	-38.704586	33.531006
844.022949	-18.559090	-13.876578	33.531006
844.413879	-23.524193	-36.221272	36.011284
844.804749	13.704361	10.940963	-1.203219
845.195496	-21.041521	55.586403	-65.764099
845.586182	-53.324051	-21.323864	-1.203219
845.976807	-100.538155	-23.806549	100.461243
846.367432	-83.138985	45.668076	-48.375336
846.757996	-95.566483	95.243134	-28.508759
847.148499	43.470238	38.228279	31.050627
847.538879	31.069647	38.228279	53.370052
847.929260	-88.109589	33.267811	75.681000
848.319641	-68.229614	-26.289337	45.931084
848.709839	-75.683823	-43.671532	36.011284
849.100098	-28.489717	-6.430233	3.760004
849.490234	-38.422161	25.826462	16.166439
849.880310	-43.389080	53.106941	33.531006
850.270325	-63.260578	40.708359	33.531006
850.660339	-28.489717	8.459638	8.722944
851.050171	-28.489717	-16.358948	55.849365
851.440125	18.666334	-36.221272	70.723633
851.829895	31.069647	40.708359	8.722944
852.219604	-38.422161	-38.704586	-3.685055
852.609314	31.069647	63.024036	83.116127
852.998901	-11.112152	13.422184	11.204123
853.388550	-3.666021	63.024036	-13.613306
853.778015	-58.292103	53.106941	-30.991747
854.167480	-88.109589	-11.394314	58.328716
854.556885	-60.776356	-21.323864	55.849365
854.946228	-33.455795	33.267811	-8.648904
855.335571	-38.422161	-53.606419	36.011284
855.724731	-13.594271	-16.358948	-21.060560
856.113953	-70.714287	-21.323864	90.550346
856.503052	-21.041521	23.345894	13.685334
856.892151	8.741838	92.765320	-13.613306
857.281067	-80.653786	13.422184	13.685334
857.670105	-1.184322	50.627377	-18.577993
858.058960	31.069647	13.422184	58.328716
858.447754	-75.683823	18.384180	11.204123
858.836609	-16.076628	-18.841421	-21.060560
859.225281	50.909378	67.981895	90.550346
859.613892	18.666334	18.384180	45.931084
860.002502	-45.872566	-6.430233	28.570143
860.391052	-38.422161	23.345894	-1.203219
860.779541	-35.938992	65.503082	-1.203219
861.167969	-35.938992	10.940963	-11.131053
861.556335	-40.905567	48.147846	-11.131053
861.944702	-18.559090	35.748096	83.116127
862.332947	-88.109589	-31.255095	18.647442
862.721069	21.147230	80.374954	8.722944
863.109253	-63.260578	75.417984	-16.095530
863.497314	-33.455795	48.147846	8.722944
863.885376	-60.776356	-23.806549	6.241526
864.273315	-100.538155	43.188202	58.328716
864.661255	1.297408	80.374954	48.410843
865.049072	-8.630004	23.345894	55.849365
865.436890	-65.745041	45.668076	-1.203219
865.824707	-26.006969	-21.323864	58.328716
866.212280	-23.524193	8.459638	50.890495
866.599915	55.868382	18.384180	-13.613306
866.987488	-21.041521	35.748096	16.166439
867.375061	-60.776356	53.106941	33.531006
867.762451	50.909378	38.228279	-13.613306
868.149841	-48.356289	45.668076	53.370052
868.537170	-18.559090	77.896523	90.550346
868.924438	-3.666021	-31.255095	-38.441204
869.311707	-28.489717	33.267811	55.849365
869.698853	-65.745041	-75.966431	33.531006
870.085938	-35.938992	100.198471	8.722944
870.472961	21.147230	87.809502	-33.474701
870.859985	-35.938992	77.896523	50.890495
871.246887	-11.112152	28.307058	1.278512
871.633789	-58.292103	43.188202	40.971390
872.020569	-38.422161	75.417984	26.089691
872.407349	-30.972702	35.748096	68.244942
872.794067	-3.666021	28.307058	-13.613306
873.180725	-13.594271	8.459638	55.849365
873.567322	-73.198936	40.708359	-13.613306
873.953796	-45.872566	77.896523	1.278512
874.340332	-33.455795	33.267811	-6.166995
874.726624	-11.112152	63.024036	-1.203219
875.113037	-30.972702	45.668076	-8.648904
875.499329	-1.184322	18.384180	73.202362
875.885559	-33.455795	72.939484	65.766006
876.271729	-38.422161	67.981895	33.531006
876.657898	-83.138985	75.417984	21.128206
877.044006	-60.776356	-3.948282	55.849365
877.429932	-33.455795	38.228279	33.531006
877.815918	-83.138985	40.708359	18.647442
878.201782	-33.455795	-6.430233	-18.577993
878.587585	-98.052200	30.787552	55.849365
878.973389	-78.168816	-3.948282	-35.957901
879.359070	-78.168816	45.668076	78.159523
879.744751	-1.184322	-51.122604	28.570143
880.130310	-11.112152	58.065624	73.202362
880.515930	-33.455795	48.147846	-1.203219
880.901367	-16.076628	-41.188007	50.890495
881.286804	-58.292103	63.024036	48.410843
881.672180	-90.595116	117.538536	65.766006
882.057434	8.741838	137.349838	-21.060560
882.442749	-23.524193	132.397690	-3.685055
882.827942	-60.776356	-1.466570	13.685334
883.213013	-45.872566	-8.912288	16.166439
883.598145	-13.594271	13.422184	93.028252
883.983154	-1.184322	63.024036	78.159523
884.368042	38.510338	58.065624	80.637810
884.753052	-53.324051	90.287529	-40.924477
885.137817	75.699867	48.147846	45.931084
885.522644	38.510338	90.287529	-13.613306
885.907349	-21.041521	40.708359	55.849365
886.292053	-8.630004	-48.638763	73.202362
886.676636	-68.229614	72.939484	93.028252
887.061157	-18.559090	92.765320	75.681000
887.445740	-11.112152	70.460739	3.760004
887.830078	-50.840118	43.188202	70.723633
888.214539	-26.006969	20.865089	48.410843
888.598816	-68.229614	35.748096	65.766006
888.983093	-16.076628	48.147846	21.128206
889.367249	36.030167	92.765320	31.050627
889.751465	-1.184322	105.153267	8.722944
890.135498	-135.352203	72.939484	78.159523
890.519531	1.297408	147.253067	73.202362
890.903503	-122.916138	120.015335	83.116127
891.287415	-63.260578	43.188202	149.991211
891.671326	-90.595116	80.374954	11.204123
892.055054	36.030167	55.586403	43.451355
892.438843	16.185331	95.243134	16.166439
892.822510	-70.714287	65.503082	21.128206
893.206116	-35.938992	75.417984	3.760004
893.589661	-53.324051	58.065624	26.089691
893.973206	6.260421	137.349838	43.451355
894.356628	-53.324051	102.675858	58.328716
894.739990	-23.524193	92.765320	13.685334
895.123352	-16.076628	63.024036	13.685334
895.506592	-8.630004	107.630577	13.685334
895.889832	-70.714287	95.243134	31.050627
896.272949	-132.864746	87.809502	43.451355
896.656067	18.666334	85.331375	43.451355
897.039063	-23.524193	87.809502	43.451355
897.422058	-30.972702	120.015335	80.637810
897.804993	1.297408	120.015335	68.244942
898.187866	-98.052200	20.865089	55.849365
898.570618	33.549892	82.853287	23.608999
898.953369	-1.184322	112.584763	43.451355
899.336121	-11.112152	70.460739	36.011284
899.718689	-30.972702	159.629868	83.116127
900.101257	-18.559090	82.853287	105.416008
900.483704	-95.566483	63.024036	38.491318
900.866211	-53.324051	90.287529	68.244942
901.248596	-93.080750	55.586403	16.166439
901.630920	-28.489717	92.765320	115.324463
902.013184	21.147230	43.188202	65.766006
902.395386	1.297408	90.287529	33.531006
902.777588	-1.184322	75.417984	68.244942
903.159668	-60.776356	142.301727	80.637810
903.541687	-18.559090	120.015335	107.893311
903.923645	28.589165	137.349838	65.766006
904.305603	-53.324051	25.826462	117.801353
904.687500	-21.041521	97.720856	63.286964
905.069275	-33.455795	60.544884	70.723633
905.451050	-18.559090	25.826462	90.550346
905.832642	-55.807961	95.243134	-23.543098
906.214294	-160.232269	77.896523	-45.891609
906.595825	-100.538155	5.978343	48.410843
906.977417	-6.147960	90.287529	36.011284
907.358826	1.297408	20.865089	28.570143
907.740234	-8.630004	129.921387	26.089691
908.121582	-63.260578	124.968636	21.128206
908.502869	-50.840118	67.981895	75.681000
908.884033	-58.292103	87.809502	102.938744
909.265198	6.260421	72.939484	33.531006
909.646301	-58.292103	137.349838	28.570143
910.027344	70.742645	110.107651	112.847603
910.408325	23.627890	167.054688	36.011284
910.789246	-6.147960	107.630577	80.637810
911.170105	-11.112152	147.253067	55.849365
911.550903	-38.422161	53.106941	58.328716
911.931641	-53.324051	60.544884	3.760004
912.312317	-83.138985	105.153267	33.531006
912.692932	-95.566483	100.198471	78.159523
913.073547	-90.595116	157.154678	60.807957
913.453979	-16.076628	115.061768	154.942062
913.834473	-70.714287	219.003357	93.028252
914.214783	-28.489717	154.679398	102.938744
914.595154	-11.112152	181.901627	112.847603
914.975464	-125.403168	162.104813	-3.685055
915.355652	-26.006969	167.054688	45.931084
915.735840	-18.559090	236.309830	75.681000
916.115845	-58.292103	127.444992	97.983635
916.495972	-48.356289	87.809502	122.754707
916.875854	-26.006969	127.444992	63.286964
917.255859	45.950100	159.629868	112.847603
917.635620	-13.594271	70.460739	157.417206
918.015503	-26.006969	139.825836	68.244942
918.395203	-75.683823	124.968636	221.738297
918.774902	-30.972702	149.728653	90.550346
919.154480	-11.112152	147.253067	75.681000
919.534058	-45.872566	142.301727	60.807957
919.913574	-33.455795	162.104813	120.278152
920.292969	33.549892	115.061768	78.159523
920.672363	-21.041521	179.427338	169.791946
921.051636	-40.905567	196.744949	125.231300
921.430969	-38.422161	196.744949	93.028252
921.810181	-65.745041	147.253067	102.938744
922.189331	-60.776356	164.579803	102.938744
922.568420	-53.324051	209.111755	167.317169
922.947388	-45.872566	176.952957	1.278512
923.326416	-35.938992	152.204010	93.028252
923.705261	-18.559090	139.825836	110.370506
924.084106	-53.324051	147.253067	88.072327
924.462891	45.950100	154.679398	110.370506
924.841675	-58.292103	122.492035	70.723633
925.220337	-43.389080	137.349838	122.754707
925.598938	-21.041521	206.638565	3.760004
925.977478	-11.112152	214.057678	125.231300
926.355957	-40.905567	144.777374	73.202362
926.734436	-78.168816	154.679398	11.204123
927.112732	-16.076628	172.004028	93.028252
927.491089	-40.905567	105.153267	115.324463
927.869324	-73.198936	152.204010	122.754707
928.247559	-55.807961	70.460739	68.244942
928.625671	3.779034	110.107651	115.324463
929.003723	-18.559090	10.940963	167.317169
929.381775	21.147230	221.475906	120.278152
929.759705	-21.041521	75.417984	43.451355
930.137634	-98.052200	110.107651	65.766006
930.515381	-95.566483	77.896523	26.089691
930.893250	-18.559090	127.444992	60.807957
931.270935	-43.389080	110.107651	137.612579
931.648560	-8.630004	95.243134	70.723633
932.026123	-26.006969	43.188202	60.807957
932.403687	43.470238	129.921387	115.324463
932.781250	18.666334	139.825836	63.286964
933.158630	-33.455795	112.584763	70.723633
933.536011	-53.324051	117.538536	73.202362
933.913208	-35.938992	63.024036	36.011284
934.290527	11.223152	33.267811	18.647442
934.667664	-28.489717	75.417984	6.241526
935.044800	-30.972702	30.787552	-33.474701
935.421814	-85.624306	60.544884	95.506065
935.798889	-78.168816	100.198471	68.244942
936.175842	-88.109589	77.896523	18.647442
936.552673	-75.683823	30.787552	36.011284
936.929504	-30.972702	65.503082	100.461243
937.306274	-83.138985	97.720856	100.461243
937.683044	-65.745041	97.720856	58.328716
938.059570	-30.972702	-6.430233	6.241526
938.436218	-60.776356	85.331375	102.938744
938.812744	-3.666021	67.981895	-21.060560
939.189148	-55.807961	-23.806549	-8.648904
939.565613	-55.807961	55.586403	-18.577993
939.941956	6.260421	-28.772097	-3.685055
940.318237	-16.076628	45.668076	-85.643227
940.694458	-95.566483	18.384180	-26.025875
941.070557	13.704361	8.459638	11.204123
941.446655	11.223152	45.668076	8.722944
941.822693	-1.184322	48.147846	45.931084
942.198669	43.470238	3.496810	43.451355
942.574646	-68.229614	-48.638763	-43.407990
942.950562	-8.630004	23.345894	63.286964
943.326294	-18.559090	3.496810	43.451355
943.702026	-83.138985	38.228279	43.451355
944.077698	-23.524193	5.978343	53.370052
944.453369	-30.972702	-66.027603	-43.407990
944.828918	-88.109589	-36.221272	6.241526
945.204468	-35.938992	70.460739	31.050627
945.579834	-48.356289	38.228279	-21.060560
945.955261	-26.006969	-18.841421	16.166439
946.330627	-58.292103	25.826462	-3.685055
946.705811	26.108580	23.345894	-43.407990
947.081055	-13.594271	67.981895	65.766006
947.456177	28.589165	80.374954	40.971390
947.831238	-50.840118	8.459638	162.367447
948.206238	-55.807961	67.981895	21.128206
948.581238	-60.776356	30.787552	75.681000
948.956116	13.704361	30.787552	-3.685055
949.330933	-63.260578	18.384180	-30.991747
949.705811	-45.872566	82.853287	-45.891609
950.080505	16.185331	-1.466570	-16.095530
950.455139	-63.260578	-11.394314	-3.685055
950.829773	40.990273	23.345894	-43.407990
951.204346	-48.356289	55.586403	-30.991747
951.578735	31.069647	25.826462	-50.859028
951.953186	38.510338	3.496810	-1.203219
952.327515	-98.052200	45.668076	21.128206
952.701843	-23.524193	60.544884	-23.543098
953.076172	-26.006969	-1.466570	78.159523
953.450195	-28.489717	65.503082	-13.613306
953.824341	-45.872566	5.978343	55.849365
954.198486	-16.076628	-6.430233	8.722944
954.572449	-45.872566	55.586403	6.241526
954.946350	33.549892	-8.912288	-18.577993
955.320251	-38.422161	-3.948282	36.011284
955.694092	-65.745041	28.307058	53.370052
956.067871	-95.566483	40.708359	18.647442
956.441589	6.260421	38.228279	11.204123
956.815125	45.950100	-23.806549	65.766006
957.188721	-1.184322	95.243134	3.760004
957.562256	-110.482895	1.015172	-16.095530
957.935730	-33.455795	55.586403	18.647442
958.309021	-21.041521	3.496810	78.159523
958.682373	-80.653786	20.865089	31.050627
959.055664	3.779034	75.417984	73.202362
959.428955	-18.559090	-26.289337	-8.648904
959.802063	18.666334	87.809502	50.890495
960.175110	-65.745041	1.015172	26.089691
960.548157	-53.324051	-48.638763	36.011284
960.921143	55.868382	97.720856	1.278512
961.294128	-28.489717	-23.806549	-26.025875
961.666809	-45.872566	40.708359	-50.859028
962.039612	-40.905567	53.106941	-28.508759
962.412415	-33.455795	40.708359	-1.203219
962.785095	60.826836	13.422184	36.011284
963.157715	-26.006969	13.422184	-13.613306
963.530151	-38.422161	55.586403	-3.685055
963.902649	-117.942543	-21.323864	31.050627
964.275146	-8.630004	28.307058	-48.375336
964.647522	-78.168816	65.503082	-26.025875
965.019714	-53.324051	15.903167	13.685334
965.392029	6.260421	-6.430233	-40.924477
965.764160	-23.524193	58.065624	-21.060560
966.136292	3.779034	-21.323864	60.807957
966.508423	-33.455795	100.198471	-53.342968
966.880371	-38.422161	-63.543125	-18.577993
967.252319	-23.524193	-36.221272	-43.407990
967.624207	-26.006969	33.267811	-18.577993
967.996094	-45.872566	20.865089	33.531006
968.367737	-23.524193	30.787552	-30.991747
968.739441	-70.714287	60.544884	-1.203219
969.111084	-33.455795	-85.906960	-16.095530
969.482666	21.147230	1.015172	23.608999
969.854248	-90.595116	23.345894	-73.217995
970.225586	-90.595116	-1.466570	-3.685055
970.596985	-107.996513	-13.876578	26.089691
970.968323	-58.292103	-6.430233	-3.685055
971.339661	-68.229614	20.865089	-23.543098
971.710754	-6.147960	20.865089	-8.648904
972.081909	-110.482895	5.978343	-23.543098
972.453064	28.589165	-18.841421	-35.957901
972.824097	-6.147960	43.188202	-8.648904
973.194946	-48.356289	30.787552	-3.685055
973.565918	-60.776356	-33.738197	36.011284
973.936768	-18.559090	-23.806549	-30.991747
974.307556	-23.524193	18.384180	60.807957
974.678284	-35.938992	-23.806549	-65.764099
975.048828	-63.260578	-6.430233	-3.685055
975.419495	3.779034	25.826462	-38.441204
975.790039	-23.524193	8.459638	8.722944
976.160522	6.260421	23.345894	-48.375336
976.530884	-55.807961	-36.221272	45.931084
976.901245	16.185331	15.903167	-98.071259
977.271606	-60.776356	10.940963	6.241526
977.641846	-45.872566	20.865089	16.166439
978.012024	-78.168816	-41.188007	-26.025875
978.382019	-98.052200	-13.876578	11.204123
978.752136	38.510338	-23.806549	26.089691
979.122131	11.223152	-16.358948	-11.131053
979.492065	-28.489717	25.826462	-40.924477
979.861877	43.470238	-43.671532	-11.131053
980.231689	-6.147960	45.668076	-40.924477
980.601440	-78.168816	-41.188007	-40.924477
980.971191	48.429859	-38.704586	33.531006
981.340820	-43.389080	-63.543125	16.166439
981.710266	-80.653786	-13.876578	-70.733208
982.079773	-26.006969	-125.686012	31.050627
982.449280	-53.324051	40.708359	75.681000
982.818604	-48.356289	48.147846	-53.342968
983.187866	-83.138985	-8.912288	-73.217995
983.557129	-38.422161	-70.996735	-16.095530
983.926331	6.260421	-36.221272	-13.613306
984.295471	-103.024216	-75.966431	50.890495
984.664612	-21.041521	-8.912288	21.128206
985.033569	-11.112152	23.345894	3.760004
985.402527	-26.006969	-98.334915	-13.613306
985.771362	-68.229614	-66.027603	-23.543098
986.140259	6.260421	-28.772097	11.204123
986.508911	-26.006969	-78.451439	-18.577993
986.877625	-50.840118	-48.638763	-18.577993
987.246277	-13.594271	-18.841421	-16.095530
987.614929	-103.024216	-6.430233	-21.060560
987.983459	-33.455795	13.422184	-23.543098
988.351807	-73.198936	-75.966431	-75.702744
988.720215	-28.489717	38.228279	23.608999
989.088623	-26.006969	-1.466570	-55.827007
989.456909	26.108580	30.787552	55.849365
989.825012	-11.112152	15.903167	-78.187744
990.193115	-100.538155	-66.027603	48.410843
990.561279	-38.422161	-115.738647	26.089691
990.929321	-45.872566	-28.772097	-23.543098
991.297302	-23.524193	-48.638763	-63.279633
991.665100	11.223152	-85.906960	-93.099678
992.033020	21.147230	-38.704586	-28.508759
992.400818	-147.790955	-13.876578	40.971390
992.768494	-8.630004	-23.806549	-88.128647
993.136047	-65.745041	-68.512184	-60.795273
993.503723	11.223152	-1.466570	-88.128647
993.871277	-48.356289	48.147846	-45.891609
994.238770	16.185331	-21.323864	-43.407990
994.606140	-6.147960	-16.358948	-1.203219
994.973450	-3.666021	48.147846	48.410843
995.340759	-8.630004	-63.543125	-28.508759
995.708008	45.950100	-68.512184	18.647442
996.075195	-55.807961	-73.481529	-18.577993
996.442200	-75.683823	-26.289337	40.971390
996.809265	-100.538155	-16.358948	-23.543098
997.176270	-83.138985	-61.058891	16.166439
997.543152	-18.559090	-51.122604	63.286964
997.910095	-21.041521	-6.430233	-30.991747
998.276733	-50.840118	-46.155025	-6.166995
998.643494	-33.455795	-16.358948	-26.025875
999.010193	-78.168816	-33.738197	-35.957901
999.376831	16.185331	-48.638763	55.849365
999.743286	-53.324051	-11.394314	-23.543098
1000.109802	6.260421	-58.574627	1.278512
1000.476257	-35.938992	-46.155025	-30.991747
1000.842651	-53.324051	-26.289337	58.328716
1001.208923	-60.776356	48.147846	-63.279633
1001.575134	-11.112152	-38.704586	-8.648904
1001.941284	-93.080750	-85.906960	-50.859028
1002.307434	-30.972702	-8.912288	-6.166995
1002.673523	-26.006969	-61.058891	-90.614174
1003.039429	-105.510239	63.024036	-1.203219
1003.405334	-3.666021	117.538536	-28.508759
1003.771179	-40.905567	-70.996735	-38.441204
1004.137024	-78.168816	-1.466570	-6.166995
1004.502808	-58.292103	1.015172	-48.375336
1004.868408	-88.109589	18.384180	-23.543098
1005.234009	-11.112152	-38.704586	-30.991747
1005.599609	-23.524193	-56.090469	80.637810
1005.965149	31.069647	-21.323864	16.166439
1006.330444	-1.184322	-66.027603	-13.613306
1006.695862	8.741838	5.978343	-26.025875
1007.061218	-85.624306	-26.289337	-83.157913
1007.426453	-21.041521	-88.392258	55.849365
1007.791626	21.147230	-33.738197	-93.099678
1008.156677	-28.489717	-26.289337	60.807957
1008.521729	1.297408	-26.289337	-68.248535
1008.886780	3.779034	-33.738197	-50.859028
1009.251709	33.549892	-16.358948	-65.764099
1009.616577	8.741838	25.826462	-8.648904
1009.981384	-48.356289	-13.876578	-115.474915
1010.346130	-28.489717	-28.772097	-78.187744
1010.710754	-48.356289	-11.394314	-60.795273
1011.075439	-26.006969	-36.221272	-18.577993
1011.439941	-58.292103	-28.772097	-60.795273
1011.804443	11.223152	35.748096	-21.060560
1012.168884	-120.429359	-48.638763	8.722944
1012.533325	-28.489717	-36.221272	31.050627
1012.897522	-103.024216	-46.155025	3.760004
1013.261780	-70.714287	-58.574627	23.608999
1013.626038	-40.905567	-61.058891	-127.909233
1013.990112	-70.714287	-16.358948	-110.501831
1014.354187	-93.080750	-48.638763	-35.957901
1014.718140	-95.566483	18.384180	-38.441204
1015.082153	13.704361	-16.358948	-33.474701
1015.446045	13.704361	38.228279	-6.166995
1015.809937	-23.524193	13.422184	1.278512
1016.173523	-80.653786	13.422184	-68.248535
1016.537170	-90.595116	50.627377	-50.859028
1016.900879	38.510338	-33.738197	21.128206
1017.264404	-55.807961	-51.122604	-8.648904
1017.627991	-13.594271	-88.392258	-38.441204
1017.991333	-88.109589	-13.876578	-53.342968
1018.354675	-48.356289	-43.671532	6.241526
1018.718018	-78.168816	-61.058891	-88.128647
1019.081299	31.069647	-93.363441	45.931084
1019.444397	-55.807961	-103.306953	-50.859028
1019.807495	-88.109589	-56.090469	-70.733208
1020.170593	-30.972702	-11.394314	23.608999
1020.533691	-33.455795	-48.638763	-30.991747
1020.896606	33.549892	-56.090469	-50.859028
1021.259460	40.990273	-11.394314	-103.043144
1021.622253	-103.024216	-83.421631	-58.311016
1021.985046	-38.422161	1.015172	-48.375336
1022.347778	-38.422161	8.459638	21.128206
1022.710327	18.666334	-53.606419	6.241526
1023.072876	-43.389080	-83.421631	-11.131053
1023.435364	-48.356289	-53.606419	-21.060560
1023.797852	-6.147960	-43.671532	-55.827007
1024.160278	-83.138985	38.228279	-16.095530
1024.522461	-28.489717	-95.849052	-23.543098
1024.884766	-65.745041	-58.574627	-43.407990
1025.246948	-30.972702	-26.289337	-6.166995
1025.609131	-33.455795	-33.738197	-28.508759
1025.971069	-30.972702	-105.792999	-30.991747
1026.333130	-78.168816	-48.638763	8.722944
1026.694946	-68.229614	13.422184	-28.508759
1027.056885	28.589165	-6.430233	-65.764099
1027.418823	-18.559090	-85.906960	-1.203219
1027.780396	-60.776356	-31.255095	-33.474701
1028.142090	-40.905567	-6.430233	-48.375336
1028.503784	-60.776356	25.826462	26.089691
1028.865479	-103.024216	-56.090469	93.028252
1029.226807	-58.292103	-36.221272	-55.827007
1029.588135	-11.112152	3.496810	11.204123
1029.949707	-18.559090	53.106941	-65.764099
1030.310913	-73.198936	15.903167	-8.648904
1030.672241	-18.559090	8.459638	-60.795273
1031.033325	-117.942543	3.496810	33.531006
1031.394531	43.470238	15.903167	-26.025875
1031.755493	-33.455795	-110.765678	-1.203219
1032.116577	-18.559090	-51.122604	6.241526
1032.477417	-40.905567	20.865089	-18.577993
1032.838257	-53.324051	-73.481529	-63.279633
1033.199097	16.185331	-16.358948	3.760004
1033.559937	-48.356289	-56.090469	6.241526
1033.920654	21.147230	-31.255095	13.685334
1034.281128	-21.041521	8.459638	-55.827007
1034.641724	-45.872566	-53.606419	-8.648904
1035.002197	-85.624306	28.307058	-43.407990
1035.362671	-6.147960	-58.574627	21.128206
1035.722900	1.297408	43.188202	-6.166995
1036.083252	-21.041521	-38.704586	-63.279633
1036.443481	-21.041521	-61.058891	-23.543098
1036.803711	-80.653786	-88.392258	1.278512
1037.163940	-28.489717	-1.466570	-18.577993
1037.523804	-13.594271	-33.738197	-53.342968
1037.883789	-40.905567	-11.394314	80.637810
1038.243774	-21.041521	-18.841421	68.244942
1038.603638	-65.745041	-11.394314	-13.613306
1038.963257	11.223152	-78.451439	-8.648904
1039.323120	1.297408	-23.806549	38.491318
1039.682861	-21.041521	-46.155025	28.570143
>>>>>End Processed Spectral Data<<<<<
