Jaz Data File
++++++++++++++++++++++++++++++++++++
Date: Sat Dec 06 16:56:55 2014
User: jaz
Dark Spectrum Present: Yes
Reference Spectrum Present: Yes
Processed Spectrum Present: No
Spectrometers: JAZA2310
Integration Time (usec): 8830 (JAZA2310)
Spectra Averaged: 1 (JAZA2310)
Boxcar Smoothing: 0 (JAZA2310)
Correct for Electrical Dark: Yes (JAZA2310)
Strobe/Lamp Enabled: No (JAZA2310)
Correct for Detector Non-linearity: Yes (JAZA2310)
Correct for Stray Light: No (JAZA2310)
Number of Pixels in Processed Spectrum: 2048
>>>>>Begin Processed Spectral Data<<<<<
W	D	R	S
188.301102	0.000000	0.000000	0.000000
188.764923	0.000000	0.000000	0.000000
189.228699	-17.697790	-59.252361	-86.878487
189.692459	-32.594280	-44.349098	-42.158794
190.156158	-72.336967	-34.415649	-59.545700
190.619812	-7.768850	-56.768177	-74.452850
191.083435	86.473007	-7.107368	24.856779
191.547043	-72.336967	-14.553798	64.534050
192.010590	-12.733179	-22.001171	-22.294321
192.474091	74.081207	-9.589452	-2.436700
192.937561	34.410435	15.226288	-14.846911
193.401001	12.083881	44.991535	-7.400444
193.864410	24.488573	-36.898750	52.137703
194.327759	4.639872	-41.865543	-37.192112
194.791077	-47.494686	59.868511	-12.364606
195.254349	-15.215364	22.669100	74.449112
195.717575	34.410435	-22.001171	71.970566
196.180786	-12.733179	30.110844	9.971037
196.643951	-25.145561	7.782674	29.817953
197.107071	29.449644	40.031765	7.489671
197.570145	44.330635	87.133446	37.258801
198.033203	-27.628407	15.226288	29.817953
198.496216	-10.250962	-9.589452	19.895325
198.959167	-0.323277	35.071445	-12.364606
199.422089	-57.430218	37.551655	-86.878487
199.884979	14.565055	-22.001171	22.376036
200.347855	22.007816	-36.898750	14.933321
200.810654	49.290051	-46.832623	-19.811836
201.273422	-7.768850	94.567154	9.971037
201.736160	-67.367584	-41.865543	-29.742676
202.198853	-57.430218	12.745276	12.452299
202.661514	-0.323277	-51.800255	-39.675331
203.124130	-22.662956	-17.036196	14.933321
203.586700	-2.805075	-22.001171	-32.225716
204.049240	-7.768850	42.511635	-9.882541
204.511734	-99.675774	-74.159439	-89.363831
204.974197	-10.250962	-29.449488	-69.483421
205.436615	-10.250962	47.471333	-9.882541
205.899002	-25.145561	-31.932516	74.449112
206.361343	-27.628407	-2.143513	-59.545700
206.823654	-22.662956	-51.800255	-32.225716
207.285919	-42.527416	-79.129272	59.575768
207.748123	4.639872	-12.071506	-39.675331
208.210327	-49.978344	-66.705429	22.376036
208.672485	-32.594280	-76.644371	-29.742676
209.134583	-79.791702	-84.099663	14.933321
209.596649	17.046124	17.707329	-7.400444
210.058670	69.123856	-156.217194	-79.422844
210.520676	7.121358	-59.252361	-96.820885
210.982635	-37.560703	-29.449488	-12.364606
211.444534	4.639872	-12.071506	-57.061504
211.906403	19.526955	-69.190041	-129.145401
212.368240	-22.662956	-46.832623	-24.777046
212.830048	-52.462242	-12.071506	74.449112
213.291779	12.083881	-31.932516	-99.306656
213.753494	17.046124	-79.129272	-81.907867
214.215179	-35.077438	-61.736523	-81.907867
214.676819	-27.628407	-46.832623	-57.061504
215.138412	-30.111357	-41.865543	-129.145401
215.599960	-12.733179	-64.220924	-64.514282
216.061493	-0.323277	-59.252361	-69.483421
216.522949	-20.180321	-79.129272	-24.777046
216.984406	-30.111357	-22.001171	-106.764862
217.445801	-22.662956	5.301351	-4.918452
217.907166	-45.010998	37.551655	-39.675331
218.368484	-82.276871	-26.966702	-9.882541
218.829773	-47.494686	-31.932516	-44.642361
219.291031	-12.733179	-14.553798	-14.846911
219.752228	-7.768850	-31.932516	29.817953
220.213379	-62.398758	-89.070343	-9.882541
220.674500	-79.791702	-24.483885	-62.030006
221.135574	-5.286978	-81.614410	-42.158794
221.596634	-40.044075	-91.555908	-62.030006
222.057648	-25.145561	-96.527229	-29.742676
222.518600	-72.336967	-79.129272	-39.675331
222.979553	-10.250962	-2.143513	9.971037
223.440430	-37.560703	-24.483885	-62.030006
223.901276	-10.250962	25.149696	-74.452850
224.362076	-5.286978	2.819789	-57.061504
224.822845	12.083881	-41.865543	-89.363831
225.283569	22.007816	-66.705429	-64.514282
225.744278	-64.883186	-29.449488	-86.878487
226.204910	-15.215364	-22.001171	-9.882541
226.665512	-82.276871	-91.555908	-37.192112
227.126114	-64.883186	-59.252361	-79.422844
227.586639	-12.733179	-26.966702	-64.514282
228.047119	-20.180321	-99.013115	-89.363831
228.507568	-20.180321	17.707329	-14.846911
228.967972	-57.430218	-79.129272	29.817953
229.428345	-32.594280	20.188267	-17.329323
229.888687	49.290051	-22.001171	19.895325
230.348984	-62.398758	-39.382095	-34.708862
230.809219	-52.462242	-14.553798	-27.259878
231.269440	-69.852226	-14.553798	-59.545700
231.729614	-32.594280	10.264028	-24.777046
232.189758	-17.697790	-36.898750	-14.846911
232.649841	9.602738	-36.898750	-39.675331
233.109894	-82.276871	-69.190041	-37.192112
233.569901	41.850708	-46.832623	-57.061504
234.029892	22.007816	12.745276	-69.483421
234.489822	-25.145561	-44.349098	-42.158794
234.949707	-52.462242	30.110844	-62.030006
235.409561	-59.914436	-66.705429	-29.742676
235.869385	-2.805075	-99.013115	44.698719
236.329163	-40.044075	-29.449488	-9.882541
236.788895	4.639872	-118.903801	7.489671
237.248581	-20.180321	-12.071506	32.298248
237.708237	-54.946247	-9.589452	-22.294321
238.167847	-107.134033	-46.832623	-2.436700
238.627441	-12.733179	-9.589452	-69.483421
239.086960	-62.398758	-31.932516	-19.811836
239.546463	-27.628407	-46.832623	-37.192112
240.005920	-49.978344	-71.674622	-37.192112
240.465332	-15.215364	-69.190041	-14.846911
240.924698	-35.077438	-31.932516	-29.742676
241.384033	-20.180321	-59.252361	7.489671
241.843338	-67.367584	-49.316387	-12.364606
242.302597	-30.111357	-84.099663	-79.422844
242.761810	-10.250962	-4.625388	-69.483421
243.220993	-72.336967	-71.674622	-42.158794
243.680115	-52.462242	-12.071506	67.012901
244.139221	29.449644	-64.220924	-59.545700
244.598282	-67.367584	-7.107368	-44.642361
245.057297	-17.697790	-79.129272	-69.483421
245.516266	-20.180321	-54.284096	-99.306656
245.975189	-57.430218	-81.614410	-2.436700
246.434082	-62.398758	-123.877464	-9.882541
246.892944	-92.218346	15.226288	-106.764862
247.351761	-59.914436	7.782674	-62.030006
247.810516	17.046124	-41.865543	-59.545700
248.269272	-87.247398	-44.349098	-49.609673
248.727951	-10.250962	-41.865543	-29.742676
249.186600	4.639872	-14.553798	5.008336
249.645218	-45.010998	-46.832623	7.489671
250.103790	-27.628407	-46.832623	-29.742676
250.562317	-15.215364	-49.316387	-7.400444
251.020813	-30.111357	-64.220924	-91.849411
251.479279	-32.594280	-59.252361	-24.777046
251.937668	-112.106689	-49.316387	-124.171135
252.396057	-149.415802	-36.898750	-29.742676
252.854385	-92.218346	-7.107368	9.971037
253.312683	19.526955	-49.316387	54.617203
253.770920	17.046124	-51.800255	5.008336
254.229126	-27.628407	2.819789	57.096470
254.687302	-102.161659	-14.553798	39.738785
255.145432	-47.494686	17.707329	-69.483421
255.603500	-40.044075	-17.036196	-96.820885
256.061584	-27.628407	-51.800255	-39.675331
256.519592	-74.821686	-29.449488	5.008336
256.977570	-27.628407	-29.449488	-71.968018
257.435455	-64.883186	-81.614410	-22.294321
257.893372	-54.946247	-31.932516	-52.093555
258.351196	-67.367584	-91.555908	-49.609673
258.808990	-2.805075	-69.190041	-139.095078
259.266754	-22.662956	-4.625388	57.096470
259.724487	69.123856	-41.865543	27.337418
260.182190	-32.594280	-14.553798	-66.998802
260.639832	-37.560703	-19.518564	-32.225716
261.097443	-45.010998	-81.614410	-59.545700
261.554993	-47.494686	-22.001171	-22.294321
262.012512	7.121358	-108.957596	-64.514282
262.469971	-77.306641	-146.264664	22.376036
262.927429	2.158417	-54.284096	-29.742676
263.384827	-72.336967	-106.471283	34.778576
263.842194	-0.323277	-31.932516	-14.846911
264.299530	-59.914436	-7.107368	-52.093555
264.756805	-37.560703	-61.736523	-14.846911
265.214050	-5.286978	-66.705429	19.895325
265.671234	-17.697790	-17.036196	-62.030006
266.128387	-54.946247	-64.220924	-39.675331
266.585510	-35.077438	-22.001171	-34.708862
267.042572	-102.161659	-26.966702	0.045083
267.499573	-214.142532	20.188267	-76.937790
267.956604	-99.675774	57.389362	-24.777046
268.413574	-10.250962	-12.071506	-12.364606
268.870483	-32.594280	-24.483885	-52.093555
269.327362	-47.494686	7.782674	-39.675331
269.784180	12.083881	-71.674622	-4.918452
270.240936	-69.852226	59.868511	-52.093555
270.697693	-15.215364	-9.589452	-101.792656
271.154419	-37.560703	-76.644371	-44.642361
271.611053	-30.111357	-49.316387	-12.364606
272.067688	-30.111357	-89.070343	-37.192112
272.524292	-5.286978	-49.316387	22.376036
272.980835	-15.215364	-7.107368	17.414375
273.437347	-10.250962	-12.071506	-34.708862
273.893799	-37.560703	-24.483885	2.526762
274.350250	31.930088	-22.001171	-79.422844
274.806610	41.850708	-69.190041	-22.294321
275.262939	-0.323277	-51.800255	-19.811836
275.719238	-5.286978	-34.415649	2.526762
276.175507	-32.594280	-17.036196	-49.609673
276.631714	-35.077438	-22.001171	-32.225716
277.087891	-45.010998	-66.705429	-47.125896
277.544067	-72.336967	-106.471283	-59.545700
278.000122	-5.286978	-79.129272	-69.483421
278.456177	-30.111357	-2.143513	-22.294321
278.912201	-37.560703	-51.800255	-71.968018
279.368164	-22.662956	67.305611	-24.777046
279.824097	-49.978344	-29.449488	-27.259878
280.279968	-87.247398	-54.284096	-4.918452
280.735840	-69.852226	-7.107368	5.008336
281.191620	-22.662956	-108.957596	-52.093555
281.647400	-15.215364	-14.553798	12.452299
282.103149	-40.044075	-66.705429	-27.259878
282.558838	-5.286978	-7.107368	-34.708862
283.014465	-69.852226	-17.036196	-116.710686
283.470062	-22.662956	-36.898750	-37.192112
283.925629	-52.462242	-12.071506	-39.675331
284.381134	-104.647797	-61.736523	19.895325
284.836639	17.046124	-51.800255	-14.846911
285.292053	-0.323277	-49.316387	-64.514282
285.747467	-27.628407	-49.316387	-19.811836
286.202820	-54.946247	57.389362	-12.364606
286.658142	-102.161659	-39.382095	-42.158794
287.113434	-54.946247	12.745276	14.933321
287.568634	-69.852226	-22.001171	-19.811836
288.023804	-54.946247	-56.768177	-116.710686
288.478973	-47.494686	-59.252361	32.298248
288.934113	-84.762016	-22.001171	-86.878487
289.389130	-37.560703	-51.800255	37.258801
289.844208	-52.462242	-151.240707	-131.632553
290.299164	-49.978344	-39.382095	-27.259878
290.754089	-0.323277	-54.284096	-54.577408
291.208984	-20.180321	-29.449488	-57.061504
291.663879	-52.462242	-14.553798	7.489671
292.118683	-30.111357	-7.107368	-2.436700
292.573456	-20.180321	-51.800255	-24.777046
293.028198	-2.805075	-14.553798	-34.708862
293.482849	-35.077438	-76.644371	-66.998802
293.937561	-72.336967	-41.865543	-39.675331
294.392151	-57.430218	-36.898750	-22.294321
294.846741	-2.805075	-64.220924	-64.514282
295.301239	-47.494686	-161.194229	-74.452850
295.755737	2.158417	2.819789	-27.259878
296.210175	-64.883186	-17.036196	-24.777046
296.664581	-20.180321	-54.284096	-71.968018
297.118958	-10.250962	-39.382095	-57.061504
297.573242	-25.145561	-86.585014	17.414375
298.027557	-74.821686	-4.625388	-24.777046
298.481812	-27.628407	-36.898750	-42.158794
298.935974	-22.662956	-44.349098	39.738785
299.390137	-32.594280	17.707329	-62.030006
299.844238	-94.704048	-31.932516	-17.329323
300.298340	-109.620232	-94.041580	19.895325
300.752350	-54.946247	-7.107368	-74.452850
301.206360	-62.398758	-19.518564	-54.577408
301.660278	-22.662956	-113.930412	-9.882541
302.114197	-54.946247	-56.768177	2.526762
302.568054	-47.494686	-56.768177	-24.777046
303.021881	-37.560703	-24.483885	-47.125896
303.475677	-17.697790	37.551655	17.414375
303.929413	-30.111357	-76.644371	-42.158794
304.383118	-25.145561	-26.966702	-22.294321
304.836761	26.969227	-41.865543	-64.514282
305.290375	-77.306641	30.110844	-4.918452
305.743958	-52.462242	15.226288	19.895325
306.197510	-59.914436	-64.220924	-59.545700
306.650970	14.565055	-49.316387	-39.675331
307.104431	-74.821686	-86.585014	24.856779
307.557800	-7.768850	-9.589452	34.778576
308.011169	-32.594280	-91.555908	12.452299
308.464508	-82.276871	7.782674	-29.742676
308.917755	-99.675774	-26.966702	-2.436700
309.371063	-32.594280	7.782674	-4.918452
309.824219	56.728462	-34.415649	-71.968018
310.277374	-49.978344	-59.252361	-71.968018
310.730499	-89.732887	-34.415649	-44.642361
311.183563	-7.768850	-7.107368	-22.294321
311.636597	-12.733179	-66.705429	-64.514282
312.089569	-27.628407	-108.957596	-62.030006
312.542511	4.639872	-74.159439	-76.937790
312.995422	-15.215364	5.301351	32.298248
313.448273	-30.111357	-79.129272	-37.192112
313.901093	-7.768850	-76.644371	42.218803
314.353882	7.121358	-41.865543	-2.436700
314.806580	-47.494686	10.264028	-14.846911
315.259308	-64.883186	30.110844	-34.708862
315.711975	-49.978344	-17.036196	29.817953
316.164581	-27.628407	-71.674622	-39.675331
316.617126	-17.697790	-79.129272	-37.192112
317.069672	-54.946247	-76.644371	-29.742676
317.522156	-134.489166	-66.705429	-39.675331
317.974579	-94.704048	-39.382095	-7.400444
318.427002	-77.306641	-51.800255	-17.329323
318.879333	2.158417	-44.349098	24.856779
319.331665	-54.946247	-41.865543	-17.329323
319.783936	-7.768850	-118.903801	2.526762
320.236176	-20.180321	-17.036196	-54.577408
320.688354	-94.704048	-96.527229	-34.708862
321.140503	-40.044075	-66.705429	-14.846911
321.592651	-87.247398	-4.625388	-42.158794
322.044647	-47.494686	-81.614410	-47.125896
322.496704	-47.494686	30.110844	-59.545700
322.948639	-82.276871	0.338123	-54.577408
323.400604	-35.077438	-41.865543	-42.158794
323.852509	59.207775	-64.220924	-22.294321
324.304352	-42.527416	-7.107368	-2.436700
324.756165	-62.398758	5.301351	-14.846911
325.207916	7.121358	-69.190041	-32.225716
325.659668	2.158417	-36.898750	-17.329323
326.111328	-5.286978	-36.898750	-12.364606
326.562988	19.526955	-74.159439	-64.514282
327.014557	4.639872	-59.252361	-121.684296
327.466156	39.370674	52.430489	-24.777046
327.917664	-77.306641	-19.518564	-109.251183
328.369110	-5.286978	-4.625388	-57.061504
328.820557	-42.527416	-4.625388	-49.609673
329.271942	-87.247398	30.110844	-74.452850
329.723297	-35.077438	-36.898750	-81.907867
330.174561	22.007816	-44.349098	-124.171135
330.625854	9.602738	-12.071506	-81.907867
331.077026	-57.430218	-36.898750	-94.335098
331.528229	9.602738	-108.957596	-57.061504
331.979370	-97.189857	-51.800255	-24.777046
332.430450	-27.628407	-26.966702	39.738785
332.881500	-15.215364	-4.625388	-42.158794
333.332489	-69.852226	17.707329	-57.061504
333.783478	-45.010998	-76.644371	27.337418
334.234406	-52.462242	-12.071506	12.452299
334.685303	-79.791702	-34.415649	-54.577408
335.136078	-77.306641	-69.190041	-9.882541
335.586914	-59.914436	-79.129272	-44.642361
336.037659	-94.704048	-54.284096	-44.642361
336.488342	41.850708	-34.415649	-39.675331
336.939026	-77.306641	-56.768177	-86.878487
337.389648	-57.430218	2.819789	-29.742676
337.840240	14.565055	-51.800255	-89.363831
338.290771	-37.560703	-66.705429	-34.708862
338.741272	-52.462242	-34.415649	-19.811836
339.191681	-99.675774	-121.390648	-29.742676
339.642120	-37.560703	0.338123	-81.907867
340.092468	17.046124	30.110844	32.298248
340.542816	-5.286978	-71.674622	71.970566
340.993103	-57.430218	2.819789	27.337418
341.443329	9.602738	-39.382095	-69.483421
341.893555	-49.978344	-56.768177	-32.225716
342.343689	-27.628407	0.338123	2.526762
342.793793	-27.628407	10.264028	-34.708862
343.243866	-17.697790	12.745276	-62.030006
343.693878	-40.044075	-84.099663	-29.742676
344.143890	-97.189857	-39.382095	-94.335098
344.593842	-94.704048	-64.220924	9.971037
345.043732	17.046124	-14.553798	-27.259878
345.493591	-7.768850	-44.349098	-37.192112
345.943359	-89.732887	-44.349098	-24.777046
346.393158	-67.367584	-19.518564	-71.968018
346.842896	-10.250962	-36.898750	-17.329323
347.292542	-74.821686	-29.449488	-47.125896
347.742218	-5.286978	-69.190041	-39.675331
348.191803	-25.145561	-26.966702	-71.968018
348.641357	-72.336967	-71.674622	-7.400444
349.090881	-52.462242	2.819789	-14.846911
349.540314	-30.111357	5.301351	-22.294321
349.989777	-52.462242	-2.143513	-12.364606
350.439148	-54.946247	-49.316387	-69.483421
350.888489	-20.180321	-36.898750	32.298248
351.337799	-25.145561	-29.449488	-64.514282
351.787048	-7.768850	-39.382095	-74.452850
352.236267	-40.044075	-26.966702	-14.846911
352.685425	-30.111357	-22.001171	-81.907867
353.134552	-52.462242	-84.099663	9.971037
353.583649	-25.145561	-51.800255	-2.436700
354.032684	-67.367584	-7.107368	37.258801
354.481659	-10.250962	-51.800255	9.971037
354.930634	-79.791702	-39.382095	-2.436700
355.379517	-49.978344	-26.966702	-44.642361
355.828430	-12.733179	-44.349098	-32.225716
356.277222	-12.733179	-12.071506	-19.811836
356.726013	-30.111357	-2.143513	14.933321
357.174774	-27.628407	-22.001171	-14.846911
357.623444	-15.215364	-4.625388	-37.192112
358.072113	-12.733179	-46.832623	-27.259878
358.520721	-30.111357	-7.107368	-14.846911
358.969299	31.930088	-41.865543	-34.708862
359.417786	-87.247398	-19.518564	-76.937790
359.866302	29.449644	7.782674	19.895325
360.314697	-27.628407	25.149696	-62.030006
360.763123	-64.883186	-19.518564	-76.937790
361.211456	-117.079918	-54.284096	-89.363831
361.659760	-20.180321	-89.070343	27.337418
362.108032	-2.805075	-41.865543	-42.158794
362.556244	-15.215364	-34.415649	2.526762
363.004456	-32.594280	32.591125	-76.937790
363.452576	-27.628407	-99.013115	-9.882541
363.900696	29.449644	-54.284096	-42.158794
364.348663	-25.145561	-36.898750	5.008336
364.796722	-10.250962	-56.768177	-49.609673
365.244690	-35.077438	-7.107368	-2.436700
365.692596	-52.462242	-9.589452	-84.393120
366.140472	7.121358	-86.585014	-7.400444
366.588287	-52.462242	-69.190041	-39.675331
367.036102	66.644951	-14.553798	7.489671
367.483826	2.158417	-54.284096	-84.393120
367.931549	34.410435	-54.284096	-74.452850
368.379181	-84.762016	-24.483885	-52.093555
368.826843	12.083881	-2.143513	-57.061504
369.274384	7.121358	-36.898750	-54.577408
369.721924	-5.286978	-101.499107	-44.642361
370.169403	-47.494686	0.338123	-9.882541
370.616821	-112.106689	-76.644371	9.971037
371.064270	7.121358	-96.527229	-29.742676
371.511566	-2.805075	-14.553798	-39.675331
371.958923	-67.367584	-24.483885	-62.030006
372.406158	39.370674	-17.036196	67.012901
372.853424	-49.978344	-66.705429	-22.294321
373.300568	-45.010998	-54.284096	-131.632553
373.747711	-27.628407	-101.499107	-39.675331
374.194794	-45.010998	-121.390648	-94.335098
374.641846	-0.323277	-79.129272	-9.882541
375.088898	-22.662956	-29.449488	-34.708862
375.535828	-32.594280	-66.705429	-34.708862
375.982758	-59.914436	-29.449488	-14.846911
376.429596	-94.704048	32.591125	-99.306656
376.876465	19.526955	-51.800255	-106.764862
377.323242	-47.494686	-46.832623	24.856779
377.769989	2.158417	-89.070343	-49.609673
378.216675	-89.732887	-76.644371	-76.937790
378.663330	-47.494686	-31.932516	2.526762
379.109985	-54.946247	-44.349098	-47.125896
379.556519	-84.762016	-128.851715	-86.878487
380.003052	-17.697790	-26.966702	9.971037
380.449524	-42.527416	10.264028	-22.294321
380.895996	-62.398758	-29.449488	-52.093555
381.342377	-12.733179	-46.832623	-84.393120
381.788727	7.121358	-29.449488	14.933321
382.235046	-30.111357	-66.705429	-101.792656
382.681274	-92.218346	-71.674622	-44.642361
383.127533	-49.978344	-59.252361	-34.708862
383.573669	-12.733179	-12.071506	-54.577408
384.019836	-82.276871	-34.415649	2.526762
384.465912	2.158417	-49.316387	-29.742676
384.911957	-15.215364	-9.589452	-47.125896
385.357971	-27.628407	32.591125	-101.792656
385.803925	-129.514572	-17.036196	-34.708862
386.249847	-87.247398	-64.220924	-66.998802
386.695679	19.526955	2.819789	-57.061504
387.141541	-57.430218	-74.159439	-42.158794
387.587311	-27.628407	-59.252361	-9.882541
388.033051	-122.053429	-89.070343	-44.642361
388.478729	-87.247398	-44.349098	-62.030006
388.924408	4.639872	-166.171570	-19.811836
389.369995	22.007816	-41.865543	49.658100
389.815552	-20.180321	-44.349098	-29.742676
390.261078	-27.628407	5.301351	-9.882541
390.706543	-35.077438	-9.589452	-32.225716
391.152008	-139.464325	-46.832623	-64.514282
391.597351	-15.215364	-41.865543	-74.452850
392.042725	24.488573	-54.284096	-57.061504
392.487976	-17.697790	-91.555908	-89.363831
392.933289	-32.594280	-106.471283	-9.882541
393.378479	2.158417	-54.284096	-7.400444
393.823639	-62.398758	-26.966702	-29.742676
394.268768	-0.323277	-106.471283	-44.642361
394.713837	9.602738	-39.382095	-19.811836
395.158905	24.488573	-138.801208	-69.483421
395.603851	-27.628407	-12.071506	-144.070511
396.048798	12.083881	-31.932516	17.414375
396.493683	19.526955	-9.589452	-19.811836
396.938568	-72.336967	-44.349098	-39.675331
397.383392	-54.946247	22.669100	-79.422844
397.828156	-20.180321	0.338123	-79.422844
398.272888	-54.946247	10.264028	49.658100
398.717560	7.121358	-14.553798	7.489671
399.162201	-30.111357	-39.382095	9.971037
399.606781	-30.111357	-54.284096	-22.294321
400.051361	24.488573	15.226288	42.218803
400.495819	-64.883186	-9.589452	-9.882541
400.940308	-22.662956	42.511635	-39.675331
401.384705	44.330635	-9.589452	-22.294321
401.829102	-42.527416	-12.071506	-79.422844
402.273438	-89.732887	-59.252361	22.376036
402.717682	-35.077438	-84.099663	37.258801
403.161926	-2.805075	-64.220924	-2.436700
403.606110	-37.560703	-46.832623	29.817953
404.050293	-12.733179	-4.625388	9.971037
404.494385	-10.250962	-59.252361	-74.452850
404.938446	-10.250962	-36.898750	-62.030006
405.382477	-2.805075	-14.553798	-54.577408
405.826447	-20.180321	-113.930412	-39.675331
406.270386	-67.367584	-89.070343	-91.849411
406.714233	-35.077438	-19.518564	-64.514282
407.158081	-49.978344	-49.316387	-22.294321
407.601868	-72.336967	-96.527229	-2.436700
408.045624	59.207775	-84.099663	-101.792656
408.489319	-5.286978	-74.159439	-57.061504
408.933014	-40.044075	-71.674622	-74.452850
409.376617	-17.697790	-39.382095	-59.545700
409.820190	-22.662956	-89.070343	-96.820885
410.263702	-30.111357	-24.483885	86.840828
410.707184	-35.077438	-89.070343	-9.882541
411.150635	-40.044075	-74.159439	24.856779
411.594025	12.083881	-108.957596	-22.294321
412.037384	-15.215364	-46.832623	-24.777046
412.480682	-2.805075	-12.071506	-22.294321
412.923981	-20.180321	20.188267	-57.061504
413.367126	-77.306641	-59.252361	-62.030006
413.810333	-35.077438	-2.143513	7.489671
414.253479	-30.111357	-17.036196	-64.514282
414.696533	19.526955	-39.382095	-22.294321
415.139587	-112.106689	-49.316387	-7.400444
415.582581	-2.805075	-17.036196	-9.882541
416.025543	-62.398758	-31.932516	-12.364606
416.468414	-5.286978	-89.070343	-47.125896
416.911285	-52.462242	-26.966702	-39.675331
417.354065	-12.733179	-91.555908	-19.811836
417.796875	-62.398758	-41.865543	5.008336
418.239594	-132.001892	-173.638474	-4.918452
418.682281	-59.914436	-9.589452	-39.675331
419.124908	-32.594280	-66.705429	-99.306656
419.567505	-15.215364	-4.625388	-74.452850
420.010071	-117.079918	-12.071506	-29.742676
420.452545	-32.594280	67.305611	-27.259878
420.895020	-42.527416	-44.349098	39.738785
421.337372	39.370674	-54.284096	-29.742676
421.779785	-82.276871	-39.382095	-42.158794
422.222107	-27.628407	69.784485	-71.968018
422.664368	22.007816	-81.614410	-42.158794
423.106628	-5.286978	-9.589452	-57.061504
423.548798	-5.286978	-36.898750	44.698719
423.990967	-42.527416	-99.013115	5.008336
424.433044	-84.762016	-31.932516	24.856779
424.875092	4.639872	-44.349098	-96.820885
425.317078	-52.462242	-41.865543	-42.158794
425.759064	2.158417	20.188267	-52.093555
426.200989	-27.628407	5.301351	-44.642361
426.642853	-40.044075	17.707329	9.971037
427.084686	-35.077438	-12.071506	-42.158794
427.526459	-32.594280	-46.832623	-47.125896
427.968201	-0.323277	27.630322	-24.777046
428.409912	-37.560703	27.630322	-2.436700
428.851563	-99.675774	-71.674622	-42.158794
429.293121	-32.594280	-79.129272	-59.545700
429.734711	-7.768850	27.630322	-4.918452
430.176239	-25.145561	-81.614410	-49.609673
430.617706	-79.791702	-44.349098	-64.514282
431.059113	-5.286978	-19.518564	-136.607468
431.500488	4.639872	-7.107368	-47.125896
431.941833	19.526955	-39.382095	22.376036
432.383087	-77.306641	-59.252361	79.406158
432.824341	-92.218346	47.471333	-24.777046
433.265533	-59.914436	-59.252361	-27.259878
433.706726	19.526955	-56.768177	-24.777046
434.147827	26.969227	22.669100	-4.918452
434.588867	-72.336967	-81.614410	24.856779
435.029877	-30.111357	-26.966702	-14.846911
435.470825	-2.805075	-69.190041	-12.364606
435.911804	59.207775	-12.071506	-64.514282
436.352661	-64.883186	-51.800255	-49.609673
436.793518	-67.367584	-99.013115	-84.393120
437.234283	9.602738	-44.349098	5.008336
437.675049	-2.805075	-26.966702	-2.436700
438.115723	-84.762016	-22.001171	24.856779
438.556396	2.158417	-81.614410	-4.918452
438.997040	-49.978344	-61.736523	12.452299
439.437561	-104.647797	-2.143513	-44.642361
439.878113	-94.704048	-71.674622	-111.737617
440.318573	-52.462242	-12.071506	-49.609673
440.759033	-42.527416	-54.284096	-54.577408
441.199341	-84.762016	22.669100	-69.483421
441.639709	-32.594280	-51.800255	-32.225716
442.079956	-17.697790	-19.518564	-81.907867
442.520264	-97.189857	-106.471283	0.045083
442.960510	-12.733179	10.264028	-32.225716
443.400604	-92.218346	-76.644371	-52.093555
443.840759	-52.462242	-71.674622	24.856779
444.280762	-64.883186	-61.736523	-19.811836
444.720825	-10.250962	5.301351	-96.820885
445.160767	-97.189857	-26.966702	24.856779
445.600739	-59.914436	-66.705429	-69.483421
446.040558	-49.978344	-71.674622	-29.742676
446.480438	-20.180321	-54.284096	-44.642361
446.920258	-25.145561	7.782674	24.856779
447.359955	-59.914436	-29.449488	-22.294321
447.799713	-64.883186	-96.527229	-2.436700
448.239319	-32.594280	-4.625388	14.933321
448.678955	-62.398758	-51.800255	-69.483421
449.118500	-99.675774	-79.129272	-71.968018
449.558014	-42.527416	-36.898750	-42.158794
449.997498	-17.697790	-123.877464	49.658100
450.436951	-25.145561	-108.957596	64.534050
450.876343	-22.662956	-51.800255	9.971037
451.315674	-22.662956	-4.625388	-76.937790
451.754974	-54.946247	-19.518564	-4.918452
452.194183	-30.111357	-61.736523	9.971037
452.633392	-54.946247	-51.800255	-24.777046
453.072510	-97.189857	0.338123	-54.577408
453.511688	61.686981	-29.449488	-44.642361
453.950684	4.639872	7.782674	-14.846911
454.389740	-42.527416	42.511635	-74.452850
454.828735	-59.914436	-14.553798	-19.811836
455.267639	-42.527416	-64.220924	17.414375
455.706543	-47.494686	5.301351	14.933321
456.145325	-35.077438	-74.159439	-81.907867
456.584137	-32.594280	15.226288	-24.777046
457.022858	-5.286978	-17.036196	32.298248
457.461578	-62.398758	-44.349098	17.414375
457.900208	-74.821686	40.031765	-34.708862
458.338867	-87.247398	-89.070343	-59.545700
458.777405	-57.430218	42.511635	-47.125896
459.215912	-77.306641	-36.898750	-7.400444
459.654388	2.158417	12.745276	-9.882541
460.092773	12.083881	-31.932516	-57.061504
460.531189	-57.430218	-39.382095	-57.061504
460.969513	-67.367584	-86.585014	12.452299
461.407806	-20.180321	-54.284096	-29.742676
461.846008	-40.044075	0.338123	-24.777046
462.284241	-5.286978	-19.518564	-9.882541
462.722351	51.769669	20.188267	-22.294321
463.160461	51.769669	12.745276	-19.811836
463.598541	-20.180321	-7.107368	76.927689
464.036530	-25.145561	-2.143513	-27.259878
464.474518	-40.044075	-19.518564	52.137703
464.912384	-2.805075	-17.036196	-32.225716
465.350281	-72.336967	-19.518564	-47.125896
465.788086	-112.106689	-26.966702	42.218803
466.225891	-10.250962	-4.625388	32.298248
466.663605	2.158417	-61.736523	-12.364606
467.101318	-114.593254	-69.190041	19.895325
467.539001	-77.306641	-7.107368	-19.811836
467.976563	-45.010998	-66.705429	44.698719
468.414124	-15.215364	-7.107368	-52.093555
468.851593	-22.662956	-94.041580	9.971037
469.289063	-37.560703	-46.832623	7.489671
469.726440	-57.430218	-61.736523	19.895325
470.163849	-37.560703	-64.220924	-34.708862
470.601135	-7.768850	-66.705429	-2.436700
471.038422	-17.697790	-54.284096	-14.846911
471.475677	4.639872	-84.099663	2.526762
471.912811	44.330635	-74.159439	-69.483421
472.350006	-104.647797	-44.349098	-9.882541
472.787048	-20.180321	-61.736523	19.895325
473.224121	-74.821686	-66.705429	-42.158794
473.661072	-54.946247	-66.705429	-9.882541
474.098053	-49.978344	-56.768177	14.933321
474.534943	-52.462242	-116.417053	-39.675331
474.971802	-35.077438	-24.483885	-22.294321
475.408630	-7.768850	-24.483885	-22.294321
475.845367	-12.733179	-2.143513	27.337418
476.282104	-82.276871	-41.865543	-17.329323
476.718750	-27.628407	-69.190041	-47.125896
477.155426	-22.662956	-101.499107	29.817953
477.591949	-35.077438	-61.736523	5.008336
478.028503	-42.527416	-76.644371	2.526762
478.464966	-0.323277	25.149696	-4.918452
478.901428	24.488573	-14.553798	29.817953
479.337860	-79.791702	-14.553798	-27.259878
479.774170	-32.594280	35.071445	-34.708862
480.210510	-97.189857	-17.036196	-27.259878
480.646698	26.969227	-17.036196	24.856779
481.082947	-54.946247	-2.143513	0.045083
481.519073	49.290051	-39.382095	-54.577408
481.955200	-40.044075	-66.705429	-39.675331
482.391266	-30.111357	-76.644371	42.218803
482.827301	-99.675774	-31.932516	-64.514282
483.263306	-40.044075	-36.898750	-76.937790
483.699188	-35.077438	-46.832623	-32.225716
484.135101	2.158417	-128.851715	-37.192112
484.570923	79.038292	-19.518564	-29.742676
485.006744	-79.791702	-9.589452	-22.294321
485.442413	-64.883186	-61.736523	-54.577408
485.878174	-17.697790	-22.001171	-2.436700
486.313782	29.449644	-29.449488	-59.545700
486.749390	-2.805075	-131.338867	-57.061504
487.184998	12.083881	-26.966702	-91.849411
487.620453	12.083881	-19.518564	5.008336
488.055939	-0.323277	-44.349098	7.489671
488.491333	49.290051	20.188267	-79.422844
488.926727	31.930088	72.263252	57.096470
489.362030	-45.010998	-2.143513	-39.675331
489.797302	-49.978344	-34.415649	-79.422844
490.232513	-15.215364	-41.865543	47.178528
490.667755	-7.768850	-41.865543	14.933321
491.102905	4.639872	-19.518564	37.258801
491.537964	-62.398758	-76.644371	-59.545700
491.973022	14.565055	-89.070343	7.489671
492.407990	-2.805075	-4.625388	-47.125896
492.842957	-17.697790	-9.589452	27.337418
493.277832	-49.978344	10.264028	14.933321
493.712738	-89.732887	-22.001171	-19.811836
494.147491	-17.697790	-9.589452	-54.577408
494.582275	-27.628407	-51.800255	-49.609673
495.017029	-30.111357	-24.483885	-24.777046
495.451660	26.969227	-29.449488	-12.364606
495.886292	-12.733179	62.347691	57.096470
496.320831	46.810326	-118.903801	-9.882541
496.755402	-54.946247	32.591125	32.298248
497.189850	-57.430218	-54.284096	7.489671
497.624298	-47.494686	25.149696	62.054955
498.058655	-67.367584	44.991535	-44.642361
498.493042	-67.367584	-71.674622	-9.882541
498.927368	-59.914436	-41.865543	-29.742676
499.361572	22.007816	-19.518564	-37.192112
499.795807	-0.323277	-138.801208	19.895325
500.229919	49.290051	-44.349098	-69.483421
500.664063	-5.286978	-36.898750	5.008336
501.098083	-47.494686	-4.625388	-22.294321
501.532104	26.969227	7.782674	-29.742676
501.966064	-5.286978	-31.932516	-39.675331
502.399994	9.602738	-22.001171	-4.918452
502.833893	-32.594280	-51.800255	-76.937790
503.267700	83.994820	-79.129272	-32.225716
503.701477	-114.593254	-64.220924	-119.197433
504.135193	-12.733179	-36.898750	-39.675331
504.568909	14.565055	-14.553798	-84.393120
505.002502	-10.250962	-49.316387	-32.225716
505.436127	-72.336967	-29.449488	-12.364606
505.869629	-57.430218	-31.932516	-37.192112
506.303162	-57.430218	-46.832623	-34.708862
506.736603	-35.077438	0.338123	-24.777046
507.169983	-15.215364	-36.898750	-89.363831
507.603363	-42.527416	-44.349098	-2.436700
508.036621	-22.662956	-56.768177	-47.125896
508.469940	-27.628407	-24.483885	-47.125896
508.903107	36.890537	20.188267	24.856779
509.336304	-52.462242	10.264028	-52.093555
509.769379	-54.946247	-19.518564	-32.225716
510.202484	-37.560703	-49.316387	39.738785
510.635529	-94.704048	-111.444023	-37.192112
511.068481	-42.527416	-34.415649	-74.452850
511.501434	-54.946247	-26.966702	-57.061504
511.934265	-122.053429	-41.865543	-59.545700
512.367126	-79.791702	7.782674	19.895325
512.799927	-87.247398	-14.553798	22.376036
513.232605	-5.286978	-36.898750	-66.998802
513.665344	24.488573	-14.553798	69.491783
514.097961	-15.215364	-4.625388	-57.061504
514.530579	-52.462242	27.630322	14.933321
514.963135	-7.768850	-66.705429	-84.393120
515.395691	-57.430218	-2.143513	39.738785
515.828064	7.121358	20.188267	-22.294321
516.260498	-10.250962	0.338123	-76.937790
516.692871	-47.494686	20.188267	7.489671
517.125183	-79.791702	-36.898750	-27.259878
517.557373	-12.733179	30.110844	-42.158794
517.989624	-17.697790	-26.966702	39.738785
518.421753	19.526955	10.264028	-27.259878
518.853943	-35.077438	15.226288	27.337418
519.286072	2.158417	-7.107368	-54.577408
519.718018	-119.566551	-22.001171	-14.846911
520.150024	-2.805075	-24.483885	-12.364606
520.581909	-97.189857	-81.614410	-39.675331
521.013855	-54.946247	27.630322	-39.675331
521.445679	-5.286978	-61.736523	24.856779
521.877502	-72.336967	-46.832623	5.008336
522.309204	-20.180321	-101.499107	24.856779
522.740906	-40.044075	15.226288	-39.675331
523.172546	-25.145561	27.630322	76.927689
523.604187	-20.180321	-66.705429	-24.777046
524.035767	-69.852226	-22.001171	-37.192112
524.467224	-62.398758	-29.449488	-59.545700
524.898682	-49.978344	52.430489	-29.742676
525.330078	-49.978344	30.110844	-7.400444
525.761475	-40.044075	-12.071506	47.178528
526.192749	-72.336967	-17.036196	-14.846911
526.624023	-62.398758	-39.382095	-86.878487
527.055237	-7.768850	-9.589452	-9.882541
527.486389	-54.946247	-14.553798	-49.609673
527.917542	-22.662956	-41.865543	-14.846911
528.348572	-7.768850	5.301351	-4.918452
528.779663	-67.367584	22.669100	59.575768
529.210571	-7.768850	-2.143513	-7.400444
529.641541	-64.883186	-29.449488	-19.811836
530.072388	-7.768850	12.745276	-4.918452
530.503235	-37.560703	67.305611	-47.125896
530.934082	-2.805075	49.950893	-7.400444
531.364746	14.565055	54.909977	-27.259878
531.795532	-25.145561	2.819789	7.489671
532.226135	-62.398758	-17.036196	0.045083
532.656738	-64.883186	7.782674	24.856779
533.087280	-17.697790	77.220345	27.337418
533.517822	-79.791702	57.389362	0.045083
533.948242	-45.010998	25.149696	22.376036
534.378662	-59.914436	69.784485	-29.742676
534.809082	-62.398758	62.347691	-14.846911
535.239319	-2.805075	32.591125	27.337418
535.669617	26.969227	57.389362	64.534050
536.099792	-35.077438	37.551655	-4.918452
536.529968	2.158417	79.698807	-37.192112
536.960083	-35.077438	54.909977	59.575768
537.390137	26.969227	49.950893	47.178528
537.820190	-45.010998	-49.316387	-17.329323
538.250183	-42.527416	62.347691	9.971037
538.680115	-37.560703	40.031765	59.575768
539.109985	31.930088	32.591125	67.012901
539.539795	-7.768850	64.826767	-42.158794
539.969543	-62.398758	99.522552	49.658100
540.399292	-30.111357	79.698807	74.449112
540.828979	-67.367584	74.741913	44.698719
541.258606	9.602738	101.999954	69.491783
541.688171	-30.111357	84.655289	86.840828
542.117737	7.121358	101.999954	94.274582
542.547302	-69.852226	25.149696	131.429733
542.976685	-37.560703	146.577667	166.087280
543.406128	-64.883186	59.868511	84.362663
543.835388	-97.189857	171.328903	116.570328
544.264771	-37.560703	203.490494	124.000549
544.693970	-32.594280	250.465820	188.356689
545.123230	-62.398758	109.431831	146.285355
545.552307	12.083881	233.163284	171.036682
545.981506	-20.180321	282.586243	232.871384
546.410583	-77.306641	230.691071	297.113831
546.839539	-94.704048	257.879669	193.304291
547.268555	-47.494686	257.879669	183.408661
547.697449	-87.247398	215.855942	232.871384
548.126282	-25.145561	225.746460	190.830612
548.555054	-69.852226	275.175323	297.113831
548.983887	-74.821686	314.690125	292.174500
549.412598	7.121358	344.310028	242.759186
549.841309	-5.286978	336.906403	267.471771
550.269958	66.644951	354.180267	306.991455
550.698486	4.639872	401.042633	329.210297
551.127075	-40.044075	465.114685	344.018646
551.555481	-42.527416	440.479065	371.157990
551.983948	-37.560703	460.188263	381.024017
552.412292	-5.286978	499.588562	371.157990
552.840698	-42.527416	428.157837	390.888550
553.268860	-15.215364	516.818665	454.970703
553.697205	-82.276871	590.610962	472.212677
554.125366	12.083881	715.869812	467.286774
554.553467	-25.145561	664.320862	646.839233
554.981628	-59.914436	715.869812	548.515076
555.409607	-72.336967	777.186768	592.778931
555.837646	-59.914436	804.148682	668.942322
556.265564	7.121358	889.867065	695.947083
556.693481	-32.594280	933.909790	727.848022
557.121338	-47.494686	1012.140686	776.897156
557.549133	-64.883186	1017.027344	936.067139
557.976929	-15.215364	1126.887695	867.546204
558.404602	-10.250962	1219.530273	1006.965271
558.832275	-49.978344	1302.323242	994.746338
559.259888	-54.946247	1453.065918	1033.839233
559.687439	-57.430218	1557.440918	1187.562134
560.114929	-30.111357	1545.311523	1236.295898
560.542419	-40.044075	1707.692261	1360.423340
560.969788	44.330635	1763.359375	1340.966064
561.397156	-35.077438	1802.061890	1503.770630
561.824524	-20.180321	1975.998657	1523.187256
562.251770	-62.398758	2014.602173	1673.503296
562.679016	29.449644	2178.472656	1680.769409
563.106140	-84.762016	2219.391602	1828.373535
563.533264	-10.250962	2382.877441	1784.846069
563.960327	-12.733179	2406.894287	2055.314453
564.387329	-35.077438	2627.549561	2103.521240
564.814331	-49.978344	2885.910645	2207.074463
565.241272	12.083881	2916.962402	2262.412598
565.668213	19.526955	3002.898926	2476.222900
566.094971	-59.914436	3200.741943	2505.012451
566.521790	14.565055	3350.648682	2727.825195
566.948425	12.083881	3528.819824	2758.928223
567.375183	-22.662956	3782.479248	2978.753174
567.801819	-27.628407	3933.908447	3069.404297
568.228394	36.890537	4134.695801	3302.802490
568.654846	-17.697790	4233.770996	3343.234863
569.081421	12.083881	4450.482910	3495.304688
569.507874	7.121358	4826.377441	3611.580566
569.934265	-27.628407	4892.031250	3883.965332
570.360596	-99.675774	5130.886230	3931.265137
570.786865	-107.134033	5315.546387	4094.289063
571.213074	-92.218346	5562.865723	4280.640137
571.639282	-20.180321	5893.384766	4607.762695
572.065430	-47.494686	6315.700684	4804.988770
572.491516	-35.077438	6574.874023	5058.068359
572.917603	-0.323277	6826.592285	5137.627441
573.343567	-129.514572	7153.770020	5415.660645
573.769531	-40.044075	7275.671387	5623.176270
574.195435	-64.883186	7548.956543	5844.287109
574.621277	-62.398758	8050.405762	6097.488770
575.047119	-87.247398	8144.072754	6361.748047
575.472839	-49.978344	8652.391602	6611.582520
575.898560	-45.010998	8836.556641	7105.165527
576.324158	-47.494686	9412.482422	7298.388184
576.749817	-15.215364	9794.382813	7284.595703
577.175293	-67.367584	10096.477539	7842.002930
577.600830	-15.215364	10418.185547	8205.451172
578.026306	-84.762016	10759.398438	8556.531250
578.451721	-52.462242	11446.318359	8779.473633
578.877136	-69.852226	11898.977539	9319.411133
579.302429	-109.620232	12534.761719	9550.179688
579.727661	-27.628407	12780.941406	9938.478516
580.152832	-32.594280	13698.752930	10247.030273
580.578064	-114.593254	13954.631836	10772.587891
581.003113	-74.821686	14659.190430	11182.370117
581.428223	31.930088	15179.912109	11722.698242
581.853271	-12.733179	15666.970703	12179.087891
582.278198	-0.323277	16357.116211	12667.608398
582.703125	-32.594280	17221.417969	13192.522461
583.127930	22.007816	18185.589844	13994.052734
583.552795	-7.768850	18963.849609	14447.752930
583.977539	9.602738	19731.515625	15179.652344
584.402283	-59.914436	21005.982422	15844.273438
584.826965	-7.768850	21688.166016	16744.275391
585.251587	-49.978344	22993.910156	17372.050781
585.676208	7.121358	23782.820313	17992.962891
586.100647	-12.733179	25247.800781	19002.947266
586.525208	-82.276871	26355.767578	20223.677734
586.949524	-84.762016	27561.541016	21012.296875
587.373962	-40.044075	28907.113281	21957.970703
587.798218	-7.768850	30318.197266	23031.078125
588.222534	-82.276871	31541.974609	24078.238281
588.646729	-25.145561	33339.640625	25103.691406
589.070984	-25.145561	34679.265625	26062.761719
589.495117	-17.697790	36420.261719	27161.324219
589.919128	-104.647797	38174.019531	28633.164063
590.343201	-35.077438	39392.449219	30046.392578
590.767151	-77.306641	41255.292969	31272.558594
591.191101	-37.560703	42323.464844	32433.222656
591.614990	-37.560703	43991.312500	34173.566406
592.038818	-102.161659	46097.789063	35095.582031
592.462524	-102.161659	46939.984375	35791.066406
592.886292	-20.180321	48644.058594	37210.878906
593.310059	-37.560703	49119.523438	38723.058594
593.733582	-77.306641	51056.828125	39401.125000
594.157227	-35.077438	51590.339844	40250.843750
594.580750	-37.560703	52347.851563	40706.335938
595.004272	-62.398758	53318.308594	41248.203125
595.427673	-42.527416	53338.761719	41798.441406
595.851074	-72.336967	53668.613281	42383.324219
596.274353	-20.180321	53898.218750	42044.160156
596.697632	-62.398758	53311.496094	41835.125000
597.120911	14.565055	52963.304688	42131.652344
597.544067	-62.398758	52282.660156	41437.234375
597.967224	-69.852226	52328.277344	41457.757813
598.390320	9.602738	51821.964844	40923.578125
598.813354	-89.732887	50520.355469	40388.179688
599.236328	-0.323277	49966.535156	39990.156250
599.659241	2.158417	49128.050781	39553.179688
600.082153	-52.462242	49299.156250	39108.613281
600.505005	-92.218346	48262.386719	38378.214844
600.927795	-25.145561	47918.804688	37787.441406
601.350525	-17.697790	48158.285156	37871.773438
601.773254	-89.732887	47670.761719	37179.851563
602.195862	-15.215364	48460.800781	37361.613281
602.618408	-69.852226	48325.605469	37184.285156
603.040955	-79.791702	48535.609375	37370.476563
603.463440	17.046124	48761.371094	37536.773438
603.885925	-32.594280	49034.453125	37417.035156
604.308350	-79.791702	48932.750000	37441.425781
604.730652	4.639872	48591.160156	36998.144531
605.152893	19.526955	48460.800781	37086.773438
605.575195	-54.946247	48122.769531	36980.421875
605.997375	-7.768850	47486.222656	36752.238281
606.419495	-30.111357	46924.312500	36295.984375
606.841553	-32.594280	45724.164063	35066.777344
607.263672	-87.247398	44601.160156	34428.539063
607.685608	-0.323277	43449.332031	33905.210938
608.107605	-84.762016	41531.054688	31906.412109
608.529480	-59.914436	40447.035156	31406.031250
608.951294	-59.914436	38358.472656	29594.552734
609.373108	-17.697790	37228.871094	28920.201172
609.794800	-5.286978	34982.847656	27236.853516
610.216553	-124.540421	32766.744141	25539.794922
610.638123	-35.077438	31479.699219	24299.031250
611.059753	-62.398758	29267.636719	22929.808594
611.481262	-104.647797	27783.824219	21914.046875
611.902832	-12.733179	25754.939453	20177.705078
612.324219	-7.768850	23915.189453	19046.677734
612.745605	-15.215364	22369.128906	17752.490234
613.166931	-67.367584	20988.447266	16394.080078
613.588196	-59.914436	19186.882813	15344.270508
614.009460	-59.914436	17853.312500	14102.043945
614.430664	-37.560703	16698.580078	13285.406250
614.851807	22.007816	15552.939453	12470.131836
615.272827	4.639872	14467.817383	11669.188477
615.693909	-74.821686	13113.135742	10402.189453
616.114929	-87.247398	12203.806641	9841.500000
616.535889	-97.189857	11153.559570	9092.801758
616.956787	-99.675774	10433.916992	8301.291016
617.377563	-141.952072	9774.069336	7670.217285
617.798340	-47.494686	9063.583008	7254.707520
618.219055	-37.560703	8338.052734	6717.841309
618.639832	-30.111357	7608.590332	6187.957031
619.060364	-107.134033	7082.415039	5634.823730
619.481018	-89.732887	6718.114746	5212.457031
619.901611	-52.462242	6234.598633	4945.657227
620.322083	-69.852226	5744.530273	4541.944336
620.742493	-89.732887	5355.245117	4290.067383
621.162842	19.526955	4875.621094	3812.976074
621.583191	24.488573	4408.115723	3511.923584
622.003418	-32.594280	4089.846191	3388.404541
622.423706	-54.946247	3877.147949	3069.404297
622.843872	-59.914436	3637.945557	2854.566650
623.264038	-45.010998	3262.635254	2660.798096
623.684143	-59.914436	3234.073730	2329.734131
624.104126	-32.594280	2964.714111	2286.462158
624.524170	-37.560703	2740.071777	2149.292480
624.944031	-7.768850	2558.052734	1929.848633
625.364014	-84.762016	2219.391602	1845.294678
625.783752	-57.430218	2168.841553	1656.546387
626.203552	-32.594280	2009.777710	1498.915649
626.623230	-7.768850	1884.244141	1474.636841
627.042969	4.639872	1746.421265	1367.718872
627.462585	2.158417	1666.522583	1326.369385
627.882141	-35.077438	1530.753662	1129.039063
628.301697	26.969227	1309.624268	1214.369507
628.721130	-7.768850	1200.036377	1014.295410
629.140625	-17.697790	1158.594360	972.747437
629.559998	-30.111357	1212.220703	857.751831
629.979309	-7.768850	1046.339722	833.260559
630.398560	2.158417	911.891968	818.561523
630.817810	7.121358	899.656860	730.301331
631.237000	14.565055	757.571350	632.099915
631.656067	-54.946247	801.697937	676.308167
632.075195	-2.805075	701.145630	595.237183
632.494202	4.639872	664.320862	536.214233
632.913208	14.565055	622.562012	440.188110
633.332092	-25.145561	543.885437	403.217041
633.750977	-72.336967	637.303467	353.888763
634.169739	-79.791702	563.563416	363.757477
634.588562	-22.662956	462.651520	378.557739
635.007263	24.488573	477.428864	351.421448
635.425964	-59.914436	477.428864	366.224457
635.844543	-109.620232	364.048767	331.678619
636.263123	-87.247398	354.180267	306.991455
636.681641	-10.250962	349.245270	262.529938
637.100037	-37.560703	309.752197	250.173981
637.518494	7.121358	297.405457	195.778015
637.936829	-37.560703	331.970062	198.251633
638.355164	-47.494686	292.466125	215.563934
638.773438	-84.762016	228.218750	190.830612
639.191650	-82.276871	265.292664	143.809616
639.609863	-10.250962	255.408447	208.145004
640.027893	-5.286978	161.429596	148.760971
640.445984	-104.647797	205.963806	153.711792
640.863953	-69.852226	245.522644	237.815414
641.281921	-57.430218	178.752304	116.570328
641.699829	-17.697790	181.226608	109.139328
642.117676	-32.594280	166.379517	89.318893
642.535461	-54.946247	208.437027	161.137329
642.953247	-40.044075	166.379517	84.362663
643.370972	-22.662956	205.963806	116.570328
643.788635	-27.628407	158.954620	109.139328
644.206177	-35.077438	154.004089	89.318893
644.623718	-54.946247	104.477394	158.662201
645.041260	-20.180321	20.188267	94.274582
645.458618	-12.733179	15.226288	54.617203
645.876099	-149.415802	59.868511	59.575768
646.293396	-97.189857	173.803513	59.575768
646.710693	-25.145561	62.347691	64.534050
647.127991	-42.527416	54.909977	94.274582
647.545166	24.488573	57.389362	22.376036
647.962341	-27.628407	-54.284096	54.617203
648.379333	-10.250962	62.347691	59.575768
648.796448	-17.697790	-19.518564	-24.777046
649.213379	-42.527416	27.630322	52.137703
649.630310	-47.494686	92.089310	47.178528
650.047180	-54.946247	7.782674	49.658100
650.463989	-17.697790	87.133446	54.617203
650.880859	-10.250962	141.626266	-19.811836
651.297546	14.565055	17.707329	99.229858
651.714233	-57.430218	32.591125	24.856779
652.130859	-30.111357	35.071445	49.658100
652.547485	-82.276871	-44.349098	29.817953
652.963928	-37.560703	87.133446	57.096470
653.380432	-52.462242	27.630322	34.778576
653.796814	-64.883186	94.567154	-54.577408
654.213196	31.930088	57.389362	32.298248
654.629578	-12.733179	7.782674	49.658100
655.045837	-25.145561	-2.143513	71.970566
655.462036	-25.145561	2.819789	69.491783
655.878174	-107.134033	0.338123	64.534050
656.294312	-97.189857	-2.143513	106.662224
656.710327	-0.323277	-17.036196	-34.708862
657.126404	-79.791702	15.226288	69.491783
657.542358	-129.514572	54.909977	-19.811836
657.958252	-22.662956	59.868511	37.258801
658.374084	-30.111357	10.264028	34.778576
658.789917	-72.336967	-19.518564	59.575768
659.205688	-37.560703	94.567154	-22.294321
659.621338	-27.628407	-31.932516	-4.918452
660.037048	44.330635	2.819789	32.298248
660.452637	-40.044075	57.389362	-24.777046
660.868164	2.158417	52.430489	44.698719
661.283691	-67.367584	57.389362	-7.400444
661.699158	-37.560703	49.950893	71.970566
662.114502	-22.662956	99.522552	2.526762
662.529846	-15.215364	-44.349098	-71.968018
662.945129	-47.494686	12.745276	42.218803
663.360413	-2.805075	-31.932516	-19.811836
663.775635	-37.560703	-2.143513	22.376036
664.190674	-59.914436	15.226288	5.008336
664.605835	7.121358	-9.589452	7.489671
665.020813	-89.732887	12.745276	-27.259878
665.435791	4.639872	40.031765	19.895325
665.850769	-25.145561	-22.001171	-4.918452
666.265625	17.046124	0.338123	59.575768
666.680420	17.046124	7.782674	12.452299
667.095215	-57.430218	87.133446	-34.708862
667.509949	-82.276871	5.301351	24.856779
667.924622	-7.768850	15.226288	24.856779
668.339233	-74.821686	74.741913	69.491783
668.753784	-69.852226	27.630322	0.045083
669.168335	-49.978344	42.511635	2.526762
669.582825	-74.821686	22.669100	52.137703
669.997192	-32.594280	25.149696	27.337418
670.411560	-49.978344	47.471333	-24.777046
670.825867	-10.250962	99.522552	-9.882541
671.240173	-62.398758	25.149696	-4.918452
671.654358	-12.733179	27.630322	17.414375
672.068481	14.565055	0.338123	0.045083
672.482605	-17.697790	-49.316387	5.008336
672.896667	-35.077438	0.338123	-49.609673
673.310669	14.565055	15.226288	34.778576
673.724609	-49.978344	-14.553798	-59.545700
674.138489	-94.704048	10.264028	5.008336
674.552307	-5.286978	25.149696	-57.061504
674.966064	-12.733179	-19.518564	-24.777046
675.379822	-40.044075	10.264028	-34.708862
675.793579	12.083881	-41.865543	24.856779
676.207153	-15.215364	-36.898750	9.971037
676.620789	-45.010998	0.338123	-19.811836
677.034241	-87.247398	27.630322	-17.329323
677.447754	-54.946247	-44.349098	-12.364606
677.861206	-20.180321	47.471333	-14.846911
678.274597	12.083881	12.745276	-109.251183
678.687866	69.123856	-2.143513	-106.764862
679.101135	-15.215364	-22.001171	-49.609673
679.514404	-57.430218	-31.932516	-59.545700
679.927551	-57.430218	-41.865543	-39.675331
680.340698	-20.180321	69.784485	5.008336
680.753723	7.121358	2.819789	-7.400444
681.166748	-87.247398	0.338123	12.452299
681.579712	-2.805075	-29.449488	-54.577408
681.992615	-5.286978	10.264028	-4.918452
682.405457	12.083881	-61.736523	37.258801
682.818298	-32.594280	-69.190041	7.489671
683.231018	-2.805075	77.220345	14.933321
683.643738	-49.978344	-26.966702	24.856779
684.056335	-45.010998	40.031765	29.817953
684.468994	-25.145561	-36.898750	-14.846911
684.881531	-57.430218	-2.143513	-37.192112
685.293945	-49.978344	-24.483885	-32.225716
685.706482	-47.494686	49.950893	-39.675331
686.118774	-2.805075	7.782674	2.526762
686.531128	-10.250962	-24.483885	-14.846911
686.943481	-40.044075	42.511635	52.137703
687.355713	-82.276871	44.991535	-9.882541
687.767883	-69.852226	42.511635	-49.609673
688.179932	7.121358	-49.316387	-59.545700
688.592041	-12.733179	82.177170	9.971037
689.004089	31.930088	-36.898750	-12.364606
689.416016	-32.594280	17.707329	2.526762
689.827881	-20.180321	-44.349098	34.778576
690.239868	44.330635	-39.382095	-57.061504
690.651611	-10.250962	-61.736523	-34.708862
691.063354	-57.430218	22.669100	49.658100
691.475098	-57.430218	20.188267	-42.158794
691.886719	-12.733179	2.819789	39.738785
692.298340	-49.978344	-59.252361	27.337418
692.709900	-84.762016	37.551655	29.817953
693.121460	-54.946247	5.301351	42.218803
693.532837	59.207775	12.745276	-69.483421
693.944214	61.686981	47.471333	52.137703
694.355652	-27.628407	-14.553798	-66.998802
694.766846	-47.494686	-59.252361	-2.436700
695.178101	41.850708	7.782674	29.817953
695.589294	-87.247398	-17.036196	-119.197433
696.000366	31.930088	5.301351	29.817953
696.411438	-54.946247	-51.800255	17.414375
696.822510	17.046124	-4.625388	-64.514282
697.233459	12.083881	-7.107368	-134.119965
697.644409	41.850708	5.301351	84.362663
698.055298	-72.336967	-7.107368	-49.609673
698.466064	29.449644	-9.589452	-24.777046
698.876831	14.565055	69.784485	64.534050
699.287537	-12.733179	-64.220924	-7.400444
699.698181	-20.180321	-19.518564	-59.545700
700.108826	-0.323277	-49.316387	-34.708862
700.519348	-72.336967	-31.932516	-22.294321
700.929810	-62.398758	-22.001171	-22.294321
701.340271	-7.768850	57.389362	-19.811836
701.750732	-74.821686	-24.483885	49.658100
702.161011	17.046124	2.819789	54.617203
702.571350	-54.946247	40.031765	54.617203
702.981567	-22.662956	10.264028	17.414375
703.391724	-84.762016	-12.071506	-14.846911
703.801880	29.449644	-44.349098	-39.675331
704.211914	-99.675774	-86.585014	-7.400444
704.621948	-47.494686	10.264028	-2.436700
705.031921	83.994820	-17.036196	-22.294321
705.441895	-32.594280	-12.071506	0.045083
705.851746	-47.494686	20.188267	-74.452850
706.261536	-17.697790	7.782674	-79.422844
706.671265	-0.323277	-56.768177	19.895325
707.081055	-84.762016	-89.070343	-59.545700
707.490662	-59.914436	7.782674	-9.882541
707.900330	-5.286978	0.338123	9.971037
708.309814	-5.286978	-59.252361	-37.192112
708.719299	-0.323277	-116.417053	-37.192112
709.128784	-35.077438	-39.382095	-59.545700
709.538147	-74.821686	10.264028	-47.125896
709.947510	61.686981	-4.625388	-22.294321
710.356750	-57.430218	15.226288	-17.329323
710.766052	39.370674	-14.553798	-9.882541
711.175171	-12.733179	-66.705429	-79.422844
711.584290	-84.762016	-91.555908	5.008336
711.993347	-27.628407	-81.614410	-24.777046
712.402405	-20.180321	-36.898750	-7.400444
712.811401	14.565055	-34.415649	7.489671
713.220276	-37.560703	22.669100	-19.811836
713.629150	-27.628407	-12.071506	17.414375
714.037964	-52.462242	7.782674	14.933321
714.446777	22.007816	-74.159439	12.452299
714.855408	-84.762016	27.630322	-9.882541
715.264099	-45.010998	40.031765	-19.811836
715.672668	-79.791702	42.511635	52.137703
716.081177	46.810326	-71.674622	-7.400444
716.489746	-17.697790	-4.625388	-17.329323
716.898132	-37.560703	27.630322	-7.400444
717.306519	-67.367584	-31.932516	-4.918452
717.714844	-94.704048	-9.589452	-71.968018
718.123108	-32.594280	-34.415649	-19.811836
718.531372	-52.462242	-29.449488	-27.259878
718.939514	-27.628407	-66.705429	-59.545700
719.347595	-5.286978	-26.966702	-19.811836
719.755676	-102.161659	20.188267	-81.907867
720.163696	54.249050	15.226288	-76.937790
720.571716	-32.594280	-111.444023	-27.259878
720.979614	22.007816	-49.316387	-9.882541
721.387451	-49.978344	7.782674	-2.436700
721.795227	-47.494686	-31.932516	-54.577408
722.202942	-89.732887	74.741913	-49.609673
722.610718	-45.010998	-14.553798	-14.846911
723.018311	17.046124	-7.107368	14.933321
723.425903	-0.323277	-26.966702	-22.294321
723.833374	-42.527416	-101.499107	-42.158794
724.240906	-77.306641	-2.143513	-32.225716
724.648376	-67.367584	-39.382095	-24.777046
725.055725	-72.336967	-7.107368	39.738785
725.463013	-37.560703	-26.966702	-24.777046
725.870300	-82.276871	-44.349098	39.738785
726.277466	-151.903839	-29.449488	-24.777046
726.684631	-64.883186	-84.099663	-17.329323
727.091797	-79.791702	20.188267	-44.642361
727.498779	-25.145561	-29.449488	-62.030006
727.905823	-62.398758	22.669100	-9.882541
728.312805	-20.180321	-51.800255	9.971037
728.719666	-159.369003	-17.036196	-89.363831
729.126526	-59.914436	12.745276	-22.294321
729.533264	-84.762016	-24.483885	12.452299
729.940063	-25.145561	-49.316387	-12.364606
730.346680	-30.111357	-79.129272	9.971037
730.753357	-122.053429	-2.143513	-59.545700
731.159851	-20.180321	62.347691	39.738785
731.566406	-15.215364	-7.107368	0.045083
731.972900	-35.077438	12.745276	-59.545700
732.379272	-104.647797	-41.865543	24.856779
732.785645	-7.768850	0.338123	-27.259878
733.191895	-22.662956	-24.483885	22.376036
733.598206	-59.914436	12.745276	-9.882541
734.004333	7.121358	-64.220924	-17.329323
734.410522	-25.145561	-17.036196	-69.483421
734.816528	7.121358	22.669100	-96.820885
735.222656	-47.494686	-51.800255	-34.708862
735.628662	-10.250962	-9.589452	27.337418
736.034546	-35.077438	54.909977	-14.846911
736.440430	-40.044075	-9.589452	-42.158794
736.846252	-22.662956	-51.800255	22.376036
737.252014	-15.215364	-113.930412	-4.918452
737.657715	-47.494686	-133.826248	0.045083
738.063354	2.158417	-12.071506	14.933321
738.468933	-89.732887	-14.553798	-79.422844
738.874512	-17.697790	20.188267	-9.882541
739.280029	-22.662956	-29.449488	-34.708862
739.685486	44.330635	-12.071506	14.933321
740.090881	-69.852226	-22.001171	27.337418
740.496216	-72.336967	-22.001171	-64.514282
740.901550	-77.306641	-29.449488	-47.125896
741.306702	-27.628407	-66.705429	-42.158794
741.711914	7.121358	-74.159439	-24.777046
742.117004	-42.527416	-46.832623	-116.710686
742.522095	7.121358	-41.865543	2.526762
742.927124	-2.805075	-2.143513	22.376036
743.332031	-20.180321	-79.129272	-44.642361
743.737000	-37.560703	47.471333	2.526762
744.141785	-64.883186	47.471333	0.045083
744.546631	66.644951	-34.415649	12.452299
744.951355	-102.161659	-7.107368	2.526762
745.356079	34.410435	-46.832623	-32.225716
745.760620	-84.762016	-41.865543	2.526762
746.165283	-52.462242	-36.898750	5.008336
746.569824	-62.398758	-34.415649	12.452299
746.974243	-82.276871	-81.614410	-81.907867
747.378723	-87.247398	-51.800255	-116.710686
747.783020	-42.527416	-66.705429	-27.259878
748.187378	-42.527416	-51.800255	-49.609673
748.591614	-40.044075	15.226288	-39.675331
748.995850	7.121358	-4.625388	-76.937790
749.399963	-32.594280	-116.417053	9.971037
749.804077	-20.180321	-69.190041	42.218803
750.208130	9.602738	-84.099663	-2.436700
750.612122	-82.276871	-24.483885	-27.259878
751.016052	-35.077438	-29.449488	-17.329323
751.419922	-57.430218	-54.284096	47.178528
751.823792	-37.560703	7.782674	-32.225716
752.227478	-15.215364	-76.644371	47.178528
752.631226	12.083881	-56.768177	-27.259878
753.034851	-104.647797	-12.071506	-24.777046
753.438477	-30.111357	-49.316387	-37.192112
753.842102	-37.560703	-49.316387	-12.364606
754.245544	-15.215364	-17.036196	-47.125896
754.648987	-30.111357	-76.644371	-84.393120
755.052368	44.330635	-94.041580	-32.225716
755.455750	-42.527416	-56.768177	9.971037
755.859009	-132.001892	-49.316387	2.526762
756.262268	-12.733179	37.551655	-7.400444
756.665405	7.121358	-54.284096	-4.918452
757.068542	-62.398758	-49.316387	-22.294321
757.471680	-45.010998	-51.800255	-37.192112
757.874634	-79.791702	-17.036196	-17.329323
758.277588	-0.323277	-34.415649	-2.436700
758.680420	-17.697790	-56.768177	-42.158794
759.083374	-7.768850	-31.932516	71.970566
759.486084	-79.791702	-41.865543	12.452299
759.888916	-42.527416	-39.382095	-22.294321
760.291504	-12.733179	-9.589452	9.971037
760.694214	-52.462242	12.745276	37.258801
761.096802	-67.367584	-4.625388	19.895325
761.499268	-89.732887	-19.518564	2.526762
761.901733	-25.145561	-7.107368	-96.820885
762.304199	-84.762016	5.301351	-94.335098
762.706543	-49.978344	-34.415649	14.933321
763.108826	-10.250962	-19.518564	9.971037
763.511108	-79.791702	-59.252361	0.045083
763.913208	-40.044075	-2.143513	-4.918452
764.315369	2.158417	-84.099663	-116.710686
764.717529	-79.791702	-51.800255	-42.158794
765.119568	7.121358	-12.071506	-139.095078
765.521545	-62.398758	-89.070343	-47.125896
765.923462	-12.733179	-19.518564	-14.846911
766.325317	14.565055	-26.966702	-44.642361
766.727112	-52.462242	-44.349098	-91.849411
767.128845	-59.914436	-56.768177	7.489671
767.530518	-72.336967	-4.625388	5.008336
767.932251	-59.914436	-56.768177	-44.642361
768.333862	-40.044075	-17.036196	-22.294321
768.735413	-64.883186	-36.898750	-19.811836
769.136841	14.565055	12.745276	-32.225716
769.538269	4.639872	17.707329	-91.849411
769.939636	-77.306641	-34.415649	-54.577408
770.341003	-25.145561	-71.674622	-14.846911
770.742249	2.158417	10.264028	-99.306656
771.143433	14.565055	-12.071506	-29.742676
771.544617	-2.805075	-2.143513	-2.436700
771.945740	2.158417	-34.415649	57.096470
772.346802	-49.978344	-36.898750	-84.393120
772.747803	-45.010998	-2.143513	-86.878487
773.148682	-141.952072	-64.220924	-19.811836
773.549622	-59.914436	-36.898750	49.658100
773.950439	-74.821686	-31.932516	-54.577408
774.351196	66.644951	-66.705429	-69.483421
774.751892	-17.697790	-56.768177	24.856779
775.152588	-69.852226	-49.316387	-12.364606
775.553162	-119.566551	-14.553798	7.489671
775.953735	-32.594280	12.745276	-69.483421
776.354309	-12.733179	-51.800255	27.337418
776.754639	-47.494686	12.745276	-29.742676
777.155090	2.158417	-61.736523	-64.514282
777.555420	-7.768850	15.226288	-91.849411
777.955750	-30.111357	-76.644371	-32.225716
778.355896	-72.336967	7.782674	-34.708862
778.756104	-30.111357	30.110844	37.258801
779.156189	-52.462242	-74.159439	2.526762
779.556274	-30.111357	-2.143513	22.376036
779.956299	39.370674	-39.382095	-52.093555
780.356201	-47.494686	-69.190041	17.414375
780.756165	-17.697790	-4.625388	-86.878487
781.156006	-0.323277	-36.898750	-59.545700
781.555786	-69.852226	-71.674622	-47.125896
781.955505	-77.306641	-46.832623	-29.742676
782.355225	12.083881	-17.036196	-37.192112
782.754761	-20.180321	-14.553798	39.738785
783.154358	-12.733179	-14.553798	-34.708862
783.553894	-69.852226	-69.190041	-86.878487
783.953369	-15.215364	-19.518564	-57.061504
784.352783	-57.430218	49.950893	-74.452850
784.752075	31.930088	-36.898750	-49.609673
785.151367	-45.010998	-31.932516	-9.882541
785.550598	59.207775	2.819789	-49.609673
785.949768	-69.852226	47.471333	-66.998802
786.348877	-2.805075	5.301351	49.658100
786.747986	-25.145561	-56.768177	-22.294321
787.147034	12.083881	-41.865543	52.137703
787.545959	93.906807	-29.449488	-24.777046
787.944885	-17.697790	-29.449488	12.452299
788.343750	-5.286978	40.031765	74.449112
788.742493	-69.852226	-44.349098	-86.878487
789.141235	-17.697790	-44.349098	-146.558441
789.539917	-59.914436	15.226288	-7.400444
789.938538	39.370674	32.591125	-7.400444
790.337158	-40.044075	49.950893	14.933321
790.735718	-32.594280	-22.001171	5.008336
791.134094	-42.527416	-39.382095	-74.452850
791.532532	-17.697790	-46.832623	-76.937790
791.930847	-67.367584	2.819789	-52.093555
792.329224	29.449644	-76.644371	22.376036
792.727417	-25.145561	-9.589452	-37.192112
793.125610	-72.336967	52.430489	-86.878487
793.523682	-45.010998	-14.553798	-151.534515
793.921753	-17.697790	-76.644371	-42.158794
794.319824	-92.218346	-79.129272	-114.224159
794.717773	-35.077438	-86.585014	96.752342
795.115723	-57.430218	-26.966702	-37.192112
795.513550	14.565055	-56.768177	-79.422844
795.911377	-84.762016	-31.932516	19.895325
796.309082	31.930088	-59.252361	-34.708862
796.706787	12.083881	-36.898750	-57.061504
797.104370	-42.527416	-2.143513	-76.937790
797.501953	-87.247398	-106.471283	-34.708862
797.899536	4.639872	2.819789	-84.393120
798.296936	-22.662956	-34.415649	14.933321
798.694397	-62.398758	-17.036196	-59.545700
799.091736	-20.180321	-41.865543	-91.849411
799.489014	-12.733179	-71.674622	12.452299
799.886230	-25.145561	79.698807	-39.675331
800.283447	-107.134033	15.226288	-86.878487
800.680542	-12.733179	109.431831	-39.675331
801.077637	-89.732887	-2.143513	-39.675331
801.474670	-64.883186	-29.449488	-66.998802
801.871643	-136.976700	-79.129272	-27.259878
802.268555	-52.462242	-46.832623	-7.400444
802.665405	-74.821686	-71.674622	7.489671
803.062256	-27.628407	-46.832623	-94.335098
803.458923	-32.594280	-12.071506	9.971037
803.855652	-20.180321	-34.415649	44.698719
804.252258	-47.494686	30.110844	-22.294321
804.648804	-84.762016	10.264028	-37.192112
805.045410	-57.430218	-94.041580	-74.452850
805.441833	-37.560703	-71.674622	-96.820885
805.838257	-10.250962	-74.159439	-24.777046
806.234619	-72.336967	0.338123	29.817953
806.630859	-30.111357	-36.898750	-74.452850
807.027100	-32.594280	-41.865543	-14.846911
807.423279	-17.697790	-89.070343	-14.846911
807.819458	-102.161659	-91.555908	-64.514282
808.215515	-22.662956	-44.349098	-57.061504
808.611572	-22.662956	-79.129272	2.526762
809.007507	12.083881	-46.832623	-81.907867
809.403381	44.330635	-36.898750	-9.882541
809.799194	-12.733179	-29.449488	-54.577408
810.195068	-32.594280	-94.041580	-22.294321
810.590759	-27.628407	-22.001171	-42.158794
810.986450	-10.250962	-66.705429	-39.675331
811.382080	-35.077438	-111.444023	-54.577408
811.777649	-15.215364	5.301351	2.526762
812.173157	17.046124	-9.589452	-64.514282
812.568665	-72.336967	-9.589452	29.817953
812.964050	-87.247398	-66.705429	-79.422844
813.359375	-20.180321	-94.041580	44.698719
813.754639	-7.768850	-31.932516	-42.158794
814.149841	-5.286978	-41.865543	-44.642361
814.545105	4.639872	-4.625388	34.778576
814.940186	-10.250962	-12.071506	-47.125896
815.335266	-35.077438	-12.071506	-47.125896
815.730347	-54.946247	-19.518564	29.817953
816.125244	-27.628407	-31.932516	-42.158794
816.520203	22.007816	-36.898750	-37.192112
816.914978	12.083881	37.551655	2.526762
817.309753	-82.276871	-54.284096	0.045083
817.704468	-54.946247	-17.036196	2.526762
818.099182	39.370674	-44.349098	-62.030006
818.493774	-25.145561	-66.705429	-27.259878
818.888367	-20.180321	54.909977	-54.577408
819.282898	-17.697790	42.511635	-14.846911
819.677307	-62.398758	82.177170	-27.259878
820.071716	-109.620232	-61.736523	-111.737617
820.466003	-72.336967	20.188267	-47.125896
820.860291	7.121358	-86.585014	-12.364606
821.254517	-37.560703	-76.644371	2.526762
821.648743	-2.805075	-39.382095	-44.642361
822.042786	-10.250962	-81.614410	-7.400444
822.436890	-57.430218	-46.832623	-9.882541
822.830872	-37.560703	54.909977	5.008336
823.224792	17.046124	-79.129272	-66.998802
823.618774	22.007816	-44.349098	-19.811836
824.012512	17.046124	12.745276	-47.125896
824.406311	-30.111357	-41.865543	-62.030006
824.799988	-37.560703	-59.252361	57.096470
825.193665	-82.276871	-41.865543	-2.436700
825.587280	-12.733179	-113.930412	-34.708862
825.980835	-99.675774	-46.832623	-22.294321
826.374329	-87.247398	-103.985214	47.178528
826.767761	-64.883186	-84.099663	-44.642361
827.161194	2.158417	-19.518564	-94.335098
827.554443	-59.914436	-46.832623	-64.514282
827.947754	-0.323277	-36.898750	-32.225716
828.340942	-92.218346	10.264028	-109.251183
828.734131	-25.145561	-128.851715	-34.708862
829.127136	-57.430218	-101.499107	-12.364606
829.520264	12.083881	-64.220924	-126.658211
829.913208	-35.077438	-69.190041	-17.329323
830.306152	-10.250962	-49.316387	37.258801
830.699097	-10.250962	-66.705429	-29.742676
831.091797	-47.494686	-64.220924	-7.400444
831.484619	-156.880508	-54.284096	-17.329323
831.877319	-129.514572	-7.107368	-24.777046
832.270020	-67.367584	2.819789	-52.093555
832.662537	-67.367584	-41.865543	-4.918452
833.055054	-77.306641	12.745276	39.738785
833.447510	-35.077438	-2.143513	-106.764862
833.839966	-49.978344	-7.107368	-54.577408
834.232361	-79.791702	0.338123	-66.998802
834.624634	-32.594280	-61.736523	2.526762
835.016907	-47.494686	15.226288	-71.968018
835.409058	-94.704048	2.819789	-69.483421
835.801208	-82.276871	2.819789	19.895325
836.193298	-79.791702	0.338123	24.856779
836.585327	-42.527416	7.782674	-14.846911
836.977295	-54.946247	-36.898750	-17.329323
837.369202	-52.462242	-41.865543	-4.918452
837.761047	-82.276871	-39.382095	-37.192112
838.152832	-37.560703	-56.768177	-101.792656
838.544617	54.249050	-136.313751	-64.514282
838.936218	-35.077438	-34.415649	-39.675331
839.327942	-12.733179	-14.553798	-54.577408
839.719421	-82.276871	-2.143513	-39.675331
840.111023	-47.494686	-34.415649	-151.534515
840.502380	-45.010998	-56.768177	-62.030006
840.893860	-72.336967	-34.415649	-17.329323
841.285217	-62.398758	-111.444023	-89.363831
841.676453	-97.189857	-101.499107	-49.609673
842.067749	-97.189857	-22.001171	-71.968018
842.458862	-27.628407	-26.966702	-32.225716
842.849976	-52.462242	-101.499107	-76.937790
843.241028	-40.044075	-44.349098	-94.335098
843.632019	-52.462242	-7.107368	-2.436700
844.022949	4.639872	-39.382095	-24.777046
844.413879	2.158417	-81.614410	14.933321
844.804749	56.728462	-86.585014	-2.436700
845.195496	-57.430218	17.707329	-12.364606
845.586182	61.686981	-24.483885	-2.436700
845.976807	-45.010998	-96.527229	-32.225716
846.367432	-32.594280	-49.316387	-47.125896
846.757996	24.488573	-31.932516	-49.609673
847.148499	-97.189857	-9.589452	-2.436700
847.538879	-59.914436	82.177170	37.258801
847.929260	-109.620232	27.630322	-52.093555
848.319641	-52.462242	5.301351	9.971037
848.709839	-10.250962	-54.284096	19.895325
849.100098	-62.398758	-34.415649	34.778576
849.490234	-12.733179	-46.832623	24.856779
849.880310	-52.462242	-46.832623	-4.918452
850.270325	-117.079918	-74.159439	-34.708862
850.660339	-69.852226	2.819789	-99.306656
851.050171	-10.250962	-34.415649	7.489671
851.440125	-22.662956	-19.518564	-74.452850
851.829895	-117.079918	59.868511	-42.158794
852.219604	2.158417	-71.674622	37.258801
852.609314	-32.594280	40.031765	-37.192112
852.998901	24.488573	7.782674	12.452299
853.388550	2.158417	-41.865543	34.778576
853.778015	-10.250962	-96.527229	-7.400444
854.167480	-0.323277	-96.527229	19.895325
854.556885	17.046124	-84.099663	5.008336
854.946228	-15.215364	-61.736523	9.971037
855.335571	24.488573	-89.070343	-27.259878
855.724731	-45.010998	-7.107368	-27.259878
856.113953	-69.852226	-39.382095	-59.545700
856.503052	-57.430218	-54.284096	-106.764862
856.892151	-17.697790	-44.349098	17.414375
857.281067	-97.189857	-24.483885	-57.061504
857.670105	-35.077438	-2.143513	-22.294321
858.058960	-89.732887	7.782674	-59.545700
858.447754	-52.462242	-7.107368	-44.642361
858.836609	-84.762016	-76.644371	0.045083
859.225281	39.370674	12.745276	-2.436700
859.613892	-45.010998	25.149696	-44.642361
860.002502	-22.662956	-44.349098	-14.846911
860.391052	-67.367584	-64.220924	37.258801
860.779541	-45.010998	-59.252361	-59.545700
861.167969	-64.883186	35.071445	19.895325
861.556335	-45.010998	15.226288	34.778576
861.944702	-10.250962	-66.705429	-54.577408
862.332947	-17.697790	-7.107368	-9.882541
862.721069	-47.494686	-29.449488	-2.436700
863.109253	2.158417	25.149696	-9.882541
863.497314	-7.768850	-64.220924	-27.259878
863.885376	-2.805075	-99.013115	-14.846911
864.273315	-62.398758	-36.898750	7.489671
864.661255	-54.946247	-74.159439	-32.225716
865.049072	-62.398758	10.264028	-69.483421
865.436890	44.330635	-46.832623	-34.708862
865.824707	-7.768850	77.220345	-64.514282
866.212280	-42.527416	-17.036196	-12.364606
866.599915	-20.180321	-14.553798	-47.125896
866.987488	-7.768850	-14.553798	-27.259878
867.375061	-35.077438	-36.898750	34.778576
867.762451	-45.010998	-44.349098	5.008336
868.149841	9.602738	-66.705429	-19.811836
868.537170	-37.560703	30.110844	-44.642361
868.924438	44.330635	-17.036196	-109.251183
869.311707	24.488573	52.430489	-39.675331
869.698853	-30.111357	-136.313751	-22.294321
870.085938	-10.250962	-64.220924	-49.609673
870.472961	-67.367584	-14.553798	-116.710686
870.859985	2.158417	-19.518564	-76.937790
871.246887	-35.077438	35.071445	19.895325
871.633789	-74.821686	-51.800255	-59.545700
872.020569	-45.010998	-49.316387	-64.514282
872.407349	9.602738	40.031765	-29.742676
872.794067	-25.145561	-56.768177	-4.918452
873.180725	9.602738	-9.589452	17.414375
873.567322	-62.398758	-26.966702	-7.400444
873.953796	-79.791702	67.305611	-14.846911
874.340332	-27.628407	-4.625388	-9.882541
874.726624	-47.494686	-64.220924	-12.364606
875.113037	-40.044075	20.188267	-37.192112
875.499329	-12.733179	7.782674	-54.577408
875.885559	9.602738	-19.518564	-9.882541
876.271729	-69.852226	7.782674	34.778576
876.657898	-32.594280	-41.865543	-79.422844
877.044006	-77.306641	2.819789	-24.777046
877.429932	-141.952072	-39.382095	22.376036
877.815918	-22.662956	-54.284096	-27.259878
878.201782	-37.560703	-26.966702	2.526762
878.587585	-32.594280	-29.449488	-4.918452
878.973389	-45.010998	-29.449488	-76.937790
879.359070	-15.215364	-24.483885	-99.306656
879.744751	-22.662956	2.819789	-34.708862
880.130310	-82.276871	-24.483885	-27.259878
880.515930	-84.762016	-12.071506	-19.811836
880.901367	-40.044075	-12.071506	-22.294321
881.286804	-20.180321	49.950893	-54.577408
881.672180	-17.697790	0.338123	-47.125896
882.057434	-40.044075	-59.252361	-69.483421
882.442749	14.565055	-69.190041	2.526762
882.827942	-114.593254	-9.589452	-24.777046
883.213013	-109.620232	-36.898750	-7.400444
883.598145	-10.250962	-36.898750	-14.846911
883.983154	-17.697790	-36.898750	-76.937790
884.368042	14.565055	-79.129272	-29.742676
884.753052	-40.044075	12.745276	-2.436700
885.137817	49.290051	-44.349098	79.406158
885.522644	61.686981	-7.107368	-12.364606
885.907349	-5.286978	-4.625388	-74.452850
886.292053	-89.732887	-61.736523	-12.364606
886.676636	-30.111357	-44.349098	-136.607468
887.061157	-2.805075	5.301351	-44.642361
887.445740	-7.768850	-19.518564	-74.452850
887.830078	-99.675774	-66.705429	-9.882541
888.214539	-89.732887	-26.966702	29.817953
888.598816	-32.594280	42.511635	-2.436700
888.983093	-49.978344	-71.674622	0.045083
889.367249	-52.462242	-24.483885	-79.422844
889.751465	4.639872	-41.865543	-37.192112
890.135498	-54.946247	-51.800255	-111.737617
890.519531	-2.805075	-113.930412	24.856779
890.903503	12.083881	-19.518564	-62.030006
891.287415	-57.430218	-9.589452	-54.577408
891.671326	-0.323277	-36.898750	-74.452850
892.055054	-25.145561	-56.768177	-49.609673
892.438843	-64.883186	-103.985214	-69.483421
892.822510	-5.286978	-69.190041	5.008336
893.206116	-37.560703	-44.349098	-42.158794
893.589661	-59.914436	0.338123	-12.364606
893.973206	-129.514572	-91.555908	12.452299
894.356628	7.121358	-26.966702	-109.251183
894.739990	19.526955	-4.625388	7.489671
895.123352	-0.323277	0.338123	-24.777046
895.506592	-62.398758	-51.800255	-34.708862
895.889832	-2.805075	-39.382095	-59.545700
896.272949	-114.593254	-59.252361	-32.225716
896.656067	-64.883186	-24.483885	-54.577408
897.039063	-30.111357	-34.415649	-42.158794
897.422058	-35.077438	15.226288	-39.675331
897.804993	-2.805075	-41.865543	-12.364606
898.187866	-72.336967	0.338123	-86.878487
898.570618	-15.215364	-71.674622	-9.882541
898.953369	9.602738	32.591125	44.698719
899.336121	54.249050	-61.736523	17.414375
899.718689	-30.111357	-91.555908	-29.742676
900.101257	-74.821686	-29.449488	-17.329323
900.483704	-12.733179	0.338123	12.452299
900.866211	-42.527416	37.551655	-32.225716
901.248596	-84.762016	30.110844	-32.225716
901.630920	-25.145561	-59.252361	44.698719
902.013184	-30.111357	-59.252361	-7.400444
902.395386	-49.978344	-17.036196	22.376036
902.777588	-27.628407	54.909977	-19.811836
903.159668	4.639872	-19.518564	-9.882541
903.541687	-82.276871	-74.159439	7.489671
903.923645	-99.675774	-2.143513	-89.363831
904.305603	-57.430218	-49.316387	-52.093555
904.687500	-79.791702	-17.036196	29.817953
905.069275	-30.111357	-14.553798	59.575768
905.451050	-17.697790	17.707329	-4.918452
905.832642	-15.215364	-91.555908	-49.609673
906.214294	-2.805075	-118.903801	29.817953
906.595825	-22.662956	37.551655	-27.259878
906.977417	-0.323277	-14.553798	14.933321
907.358826	-20.180321	-59.252361	-59.545700
907.740234	-22.662956	-36.898750	-47.125896
908.121582	-27.628407	-74.159439	-62.030006
908.502869	36.890537	-29.449488	-64.514282
908.884033	-5.286978	-51.800255	-52.093555
909.265198	-47.494686	-74.159439	24.856779
909.646301	-49.978344	-12.071506	-57.061504
910.027344	-74.821686	-59.252361	24.856779
910.408325	-7.768850	17.707329	-39.675331
910.789246	-10.250962	-26.966702	-44.642361
911.170105	-47.494686	-14.553798	-54.577408
911.550903	-35.077438	-41.865543	-62.030006
911.931641	-2.805075	-26.966702	-32.225716
912.312317	-84.762016	-71.674622	-29.742676
912.692932	-32.594280	-22.001171	-49.609673
913.073547	-32.594280	20.188267	-24.777046
913.453979	-69.852226	-69.190041	19.895325
913.834473	74.081207	-133.826248	22.376036
914.214783	-54.946247	-66.705429	39.738785
914.595154	-57.430218	-79.129272	-24.777046
914.975464	-139.464325	-44.349098	-32.225716
915.355652	-132.001892	25.149696	-39.675331
915.735840	-12.733179	17.707329	57.096470
916.115845	-62.398758	-26.966702	-29.742676
916.495972	-5.286978	-17.036196	34.778576
916.875854	-104.647797	5.301351	-62.030006
917.255859	-35.077438	0.338123	-37.192112
917.635620	-94.704048	-46.832623	-106.764862
918.015503	7.121358	-69.190041	-79.422844
918.395203	-69.852226	-44.349098	-49.609673
918.774902	-45.010998	-4.625388	-12.364606
919.154480	-104.647797	-51.800255	12.452299
919.534058	-52.462242	-44.349098	-29.742676
919.913574	-12.733179	-49.316387	-76.937790
920.292969	-32.594280	-66.705429	-62.030006
920.672363	9.602738	-22.001171	-62.030006
921.051636	-22.662956	-76.644371	-22.294321
921.430969	-5.286978	7.782674	-27.259878
921.810181	-74.821686	-91.555908	-101.792656
922.189331	-49.978344	-71.674622	-57.061504
922.568420	7.121358	62.347691	-27.259878
922.947388	29.449644	-64.220924	-59.545700
923.326416	-49.978344	-7.107368	-22.294321
923.705261	7.121358	-39.382095	-22.294321
924.084106	2.158417	20.188267	-89.363831
924.462891	22.007816	-76.644371	-39.675331
924.841675	14.565055	-26.966702	-49.609673
925.220337	-0.323277	2.819789	-42.158794
925.598938	7.121358	-111.444023	-66.998802
925.977478	-32.594280	-51.800255	49.658100
926.355957	-77.306641	-106.471283	-27.259878
926.734436	-69.852226	-59.252361	-54.577408
927.112732	-25.145561	-101.499107	-74.452850
927.491089	-57.430218	17.707329	42.218803
927.869324	-45.010998	-66.705429	-27.259878
928.247559	-15.215364	32.591125	-32.225716
928.625671	2.158417	-49.316387	-22.294321
929.003723	-47.494686	-64.220924	-27.259878
929.381775	-49.978344	-22.001171	17.414375
929.759705	-42.527416	-81.614410	-34.708862
930.137634	-82.276871	7.782674	-22.294321
930.515381	7.121358	30.110844	-12.364606
930.893250	-52.462242	27.630322	29.817953
931.270935	-20.180321	-59.252361	-2.436700
931.648560	-35.077438	-29.449488	-17.329323
932.026123	-2.805075	42.511635	52.137703
932.403687	9.602738	-46.832623	-4.918452
932.781250	-54.946247	-74.159439	-4.918452
933.158630	59.207775	-24.483885	27.337418
933.536011	-0.323277	-59.252361	29.817953
933.913208	-32.594280	-46.832623	24.856779
934.290527	-22.662956	-79.129272	-19.811836
934.667664	-62.398758	-84.099663	42.218803
935.044800	-69.852226	-39.382095	-84.393120
935.421814	-22.662956	-4.625388	-12.364606
935.798889	-67.367584	-41.865543	-121.684296
936.175842	-64.883186	0.338123	7.489671
936.552673	-30.111357	-4.625388	-47.125896
936.929504	-22.662956	-91.555908	-17.329323
937.306274	39.370674	-69.190041	-17.329323
937.683044	-7.768850	-26.966702	-49.609673
938.059570	-64.883186	-96.527229	-62.030006
938.436218	-15.215364	-64.220924	-69.483421
938.812744	-62.398758	-56.768177	-81.907867
939.189148	-35.077438	-44.349098	-29.742676
939.565613	-5.286978	-19.518564	-54.577408
939.941956	-10.250962	-99.013115	-34.708862
940.318237	-92.218346	-118.903801	-96.820885
940.694458	-22.662956	-64.220924	-12.364606
941.070557	-40.044075	7.782674	-22.294321
941.446655	-40.044075	-71.674622	-57.061504
941.822693	-35.077438	-64.220924	-32.225716
942.198669	-25.145561	-29.449488	-22.294321
942.574646	31.930088	-44.349098	-49.609673
942.950562	-99.675774	-31.932516	12.452299
943.326294	-25.145561	-69.190041	-42.158794
943.702026	-59.914436	-41.865543	-37.192112
944.077698	-17.697790	-71.674622	-27.259878
944.453369	2.158417	-29.449488	19.895325
944.828918	-0.323277	25.149696	-71.968018
945.204468	-59.914436	-71.674622	9.971037
945.579834	-7.768850	-36.898750	-42.158794
945.955261	-17.697790	27.630322	-37.192112
946.330627	-82.276871	-74.159439	-64.514282
946.705811	-69.852226	-46.832623	2.526762
947.081055	-17.697790	-19.518564	9.971037
947.456177	-5.286978	-74.159439	19.895325
947.831238	-112.106689	-17.036196	14.933321
948.206238	-67.367584	-51.800255	-74.452850
948.581238	-87.247398	-121.390648	12.452299
948.956116	-47.494686	7.782674	-52.093555
949.330933	-15.215364	7.782674	-17.329323
949.705811	-7.768850	-51.800255	-9.882541
950.080505	-40.044075	-71.674622	-39.675331
950.455139	9.602738	-34.415649	-42.158794
950.829773	-5.286978	-116.417053	-39.675331
951.204346	-54.946247	-7.107368	-64.514282
951.578735	29.449644	10.264028	-66.998802
951.953186	2.158417	-59.252361	-49.609673
952.327515	9.602738	-31.932516	-24.777046
952.701843	-0.323277	-74.159439	-42.158794
953.076172	-72.336967	-9.589452	-49.609673
953.450195	-67.367584	-99.013115	-59.545700
953.824341	-20.180321	-69.190041	-2.436700
954.198486	-45.010998	-12.071506	-99.306656
954.572449	-17.697790	-64.220924	-12.364606
954.946350	-32.594280	5.301351	-57.061504
955.320251	-92.218346	-22.001171	-4.918452
955.694092	-25.145561	-66.705429	-37.192112
956.067871	-42.527416	-81.614410	-49.609673
956.441589	-49.978344	52.430489	47.178528
956.815125	34.410435	-84.099663	-17.329323
957.188721	-32.594280	82.177170	-49.609673
957.562256	-42.527416	-64.220924	59.575768
957.935730	-35.077438	-56.768177	-37.192112
958.309021	-52.462242	-39.382095	-52.093555
958.682373	-49.978344	-46.832623	-66.998802
959.055664	-82.276871	-39.382095	-66.998802
959.428955	-67.367584	-79.129272	29.817953
959.802063	-79.791702	-59.252361	-76.937790
960.175110	-2.805075	-7.107368	-47.125896
960.548157	-32.594280	-74.159439	-2.436700
960.921143	-57.430218	-2.143513	-7.400444
961.294128	-47.494686	-2.143513	-99.306656
961.666809	-40.044075	-36.898750	2.526762
962.039612	39.370674	40.031765	-32.225716
962.412415	-2.805075	20.188267	-2.436700
962.785095	56.728462	-91.555908	-94.335098
963.157715	-5.286978	-74.159439	-12.364606
963.530151	-20.180321	20.188267	-81.907867
963.902649	-45.010998	12.745276	-47.125896
964.275146	-79.791702	-31.932516	-64.514282
964.647522	-10.250962	-59.252361	62.054955
965.019714	-82.276871	-34.415649	-19.811836
965.392029	12.083881	-31.932516	-101.792656
965.764160	-15.215364	-66.705429	17.414375
966.136292	-22.662956	-29.449488	-94.335098
966.508423	9.602738	-69.190041	-121.684296
966.880371	-22.662956	-49.316387	34.778576
967.252319	-15.215364	-2.143513	14.933321
967.624207	-0.323277	-36.898750	-44.642361
967.996094	-40.044075	-29.449488	-34.708862
968.367737	-37.560703	-24.483885	-136.607468
968.739441	-42.527416	-96.527229	-69.483421
969.111084	-77.306641	-113.930412	-44.642361
969.482666	-45.010998	37.551655	-49.609673
969.854248	-87.247398	-39.382095	-22.294321
970.225586	-54.946247	-41.865543	-94.335098
970.596985	-54.946247	-24.483885	-24.777046
970.968323	12.083881	-49.316387	19.895325
971.339661	-27.628407	-54.284096	-34.708862
971.710754	-97.189857	-91.555908	-17.329323
972.081909	-87.247398	-54.284096	32.298248
972.453064	-0.323277	-51.800255	-37.192112
972.824097	-72.336967	10.264028	7.489671
973.194946	29.449644	-118.903801	-19.811836
973.565918	-5.286978	-26.966702	-52.093555
973.936768	2.158417	-17.036196	-49.609673
974.307556	-15.215364	-81.614410	24.856779
974.678284	-74.821686	17.707329	62.054955
975.048828	-22.662956	-29.449488	-27.259878
975.419495	4.639872	17.707329	-32.225716
975.790039	-42.527416	-19.518564	-24.777046
976.160522	-15.215364	25.149696	-94.335098
976.530884	-49.978344	-41.865543	49.658100
976.901245	31.930088	-26.966702	-9.882541
977.271606	-129.514572	17.707329	-76.937790
977.641846	22.007816	-69.190041	22.376036
978.012024	9.602738	-76.644371	-29.742676
978.382019	-92.218346	-7.107368	-34.708862
978.752136	17.046124	-64.220924	-106.764862
979.122131	-67.367584	-29.449488	-12.364606
979.492065	2.158417	-29.449488	-29.742676
979.861877	-62.398758	-44.349098	-4.918452
980.231689	-0.323277	-49.316387	-64.514282
980.601440	29.449644	-19.518564	-74.452850
980.971191	-45.010998	-56.768177	-37.192112
981.340820	-25.145561	15.226288	14.933321
981.710266	-27.628407	-36.898750	-39.675331
982.079773	-40.044075	-22.001171	-106.764862
982.449280	19.526955	-64.220924	-39.675331
982.818604	-25.145561	-46.832623	-44.642361
983.187866	-57.430218	17.707329	-69.483421
983.557129	-149.415802	-46.832623	-64.514282
983.926331	-59.914436	-22.001171	-37.192112
984.295471	54.249050	-131.338867	-37.192112
984.664612	-62.398758	-46.832623	-76.937790
985.033569	-20.180321	-19.518564	-29.742676
985.402527	-15.215364	-2.143513	-7.400444
985.771362	-64.883186	-66.705429	-74.452850
986.140259	-77.306641	20.188267	-17.329323
986.508911	-84.762016	-64.220924	-27.259878
986.877625	-92.218346	-46.832623	22.376036
987.246277	-12.733179	-81.614410	5.008336
987.614929	-35.077438	-41.865543	-71.968018
987.983459	-47.494686	62.347691	-9.882541
988.351807	-47.494686	-2.143513	-54.577408
988.720215	-35.077438	-74.159439	7.489671
989.088623	-94.704048	27.630322	-37.192112
989.456909	-27.628407	-2.143513	-29.742676
989.825012	-47.494686	-76.644371	-47.125896
990.193115	-84.762016	-56.768177	-42.158794
990.561279	-35.077438	-96.527229	-39.675331
990.929321	-0.323277	-84.099663	0.045083
991.297302	14.565055	-22.001171	-42.158794
991.665100	-22.662956	-41.865543	-7.400444
992.033020	-12.733179	-61.736523	-49.609673
992.400818	4.639872	-4.625388	12.452299
992.768494	-40.044075	-79.129272	-106.764862
993.136047	69.123856	-64.220924	-79.422844
993.503723	-15.215364	-24.483885	-52.093555
993.871277	-15.215364	12.745276	-2.436700
994.238770	-10.250962	7.782674	0.045083
994.606140	59.207775	-19.518564	-32.225716
994.973450	-0.323277	-36.898750	-94.335098
995.340759	-30.111357	-39.382095	-79.422844
995.708008	-37.560703	-31.932516	-64.514282
996.075195	-89.732887	-74.159439	-79.422844
996.442200	-42.527416	-91.555908	-94.335098
996.809265	-62.398758	-4.625388	-37.192112
997.176270	-45.010998	7.782674	-49.609673
997.543152	-45.010998	-59.252361	32.298248
997.910095	49.290051	-14.553798	-66.998802
998.276733	17.046124	-24.483885	-59.545700
998.643494	-10.250962	-31.932516	7.489671
999.010193	-15.215364	25.149696	-29.742676
999.376831	-84.762016	32.591125	0.045083
999.743286	-45.010998	-46.832623	-42.158794
1000.109802	-117.079918	-111.444023	9.971037
1000.476257	-79.791702	-39.382095	17.414375
1000.842651	17.046124	-17.036196	-22.294321
1001.208923	-64.883186	-51.800255	-24.777046
1001.575134	22.007816	-56.768177	-59.545700
1001.941284	-57.430218	-61.736523	-39.675331
1002.307434	-40.044075	-94.041580	-59.545700
1002.673523	-12.733179	-74.159439	32.298248
1003.039429	-42.527416	-44.349098	-47.125896
1003.405334	9.602738	-46.832623	-49.609673
1003.771179	-59.914436	-49.316387	-57.061504
1004.137024	-114.593254	10.264028	-74.452850
1004.502808	59.207775	-46.832623	-37.192112
1004.868408	-27.628407	-44.349098	-34.708862
1005.234009	64.165955	-41.865543	-14.846911
1005.599609	-67.367584	7.782674	-69.483421
1005.965149	-10.250962	-61.736523	9.971037
1006.330444	-42.527416	-34.415649	-19.811836
1006.695862	-5.286978	-31.932516	-37.192112
1007.061218	-47.494686	-56.768177	-32.225716
1007.426453	-22.662956	-31.932516	-71.968018
1007.791626	-45.010998	-69.190041	-4.918452
1008.156677	-92.218346	-4.625388	-24.777046
1008.521729	-69.852226	-39.382095	-79.422844
1008.886780	-52.462242	10.264028	-19.811836
1009.251709	-47.494686	-116.417053	0.045083
1009.616577	-40.044075	30.110844	-24.777046
1009.981384	4.639872	-61.736523	-32.225716
1010.346130	-2.805075	-36.898750	-54.577408
1010.710754	-7.768850	32.591125	-9.882541
1011.075439	-27.628407	-22.001171	-9.882541
1011.439941	-0.323277	-99.013115	-49.609673
1011.804443	-30.111357	-41.865543	14.933321
1012.168884	-7.768850	-4.625388	-24.777046
1012.533325	-35.077438	-89.070343	-34.708862
1012.897522	7.121358	10.264028	5.008336
1013.261780	-47.494686	-79.129272	-158.999512
1013.626038	-64.883186	7.782674	-14.846911
1013.990112	-141.952072	47.471333	-24.777046
1014.354187	-32.594280	-26.966702	-81.907867
1014.718140	-89.732887	-46.832623	-19.811836
1015.082153	-45.010998	-31.932516	-44.642361
1015.446045	-32.594280	-39.382095	-27.259878
1015.809937	-87.247398	-91.555908	-47.125896
1016.173523	-20.180321	-116.417053	-37.192112
1016.537170	-7.768850	-19.518564	-52.093555
1016.900879	-7.768850	54.909977	12.452299
1017.264404	-74.821686	-36.898750	9.971037
1017.627991	7.121358	-2.143513	-71.968018
1017.991333	-49.978344	-22.001171	-32.225716
1018.354675	-20.180321	-17.036196	-109.251183
1018.718018	-30.111357	-56.768177	-54.577408
1019.081299	59.207775	-116.417053	-76.937790
1019.444397	66.644951	-86.585014	-44.642361
1019.807495	-92.218346	-41.865543	-24.777046
1020.170593	-74.821686	22.669100	-64.514282
1020.533691	-40.044075	-34.415649	-54.577408
1020.896606	-99.675774	-24.483885	-27.259878
1021.259460	-32.594280	-17.036196	-19.811836
1021.622253	-52.462242	-49.316387	-57.061504
1021.985046	-82.276871	-69.190041	54.617203
1022.347778	-57.430218	-7.107368	-27.259878
1022.710327	-12.733179	-71.674622	-42.158794
1023.072876	2.158417	-116.417053	-32.225716
1023.435364	-20.180321	-64.220924	-27.259878
1023.797852	46.810326	-54.284096	-34.708862
1024.160278	31.930088	-108.957596	-54.577408
1024.522461	36.890537	-12.071506	-2.436700
1024.884766	-89.732887	-29.449488	-22.294321
1025.246948	14.565055	-71.674622	-24.777046
1025.609131	-10.250962	-71.674622	-32.225716
1025.971069	-17.697790	-86.585014	-91.849411
1026.333130	-57.430218	-2.143513	-2.436700
1026.694946	-12.733179	49.950893	-74.452850
1027.056885	-62.398758	-46.832623	-7.400444
1027.418823	-45.010998	-34.415649	-59.545700
1027.780396	-84.762016	-49.316387	-12.364606
1028.142090	-77.306641	-29.449488	-29.742676
1028.503784	-12.733179	-71.674622	9.971037
1028.865479	-62.398758	42.511635	-96.820885
1029.226807	-72.336967	-56.768177	-71.968018
1029.588135	-84.762016	-12.071506	-62.030006
1029.949707	-20.180321	-76.644371	-29.742676
1030.310913	-59.914436	-49.316387	-42.158794
1030.672241	44.330635	-19.518564	-4.918452
1031.033325	-15.215364	-89.070343	-52.093555
1031.394531	-5.286978	-131.338867	-29.742676
1031.755493	-67.367584	-34.415649	-94.335098
1032.116577	19.526955	-44.349098	0.045083
1032.477417	9.602738	-76.644371	-79.422844
1032.838257	34.410435	59.868511	-9.882541
1033.199097	17.046124	-24.483885	5.008336
1033.559937	36.890537	-19.518564	-99.306656
1033.920654	-40.044075	-84.099663	-42.158794
1034.281128	-64.883186	-17.036196	-57.061504
1034.641724	-12.733179	-22.001171	-17.329323
1035.002197	34.410435	5.301351	-74.452850
1035.362671	-0.323277	-14.553798	-111.737617
1035.722900	-45.010998	-49.316387	14.933321
1036.083252	-47.494686	-17.036196	9.971037
1036.443481	-30.111357	2.819789	37.258801
1036.803711	-5.286978	-29.449488	-14.846911
1037.163940	-47.494686	-7.107368	-42.158794
1037.523804	-10.250962	-4.625388	-59.545700
1037.883789	-17.697790	-113.930412	19.895325
1038.243774	-77.306641	-41.865543	29.817953
1038.603638	-32.594280	-19.518564	-17.329323
1038.963257	-45.010998	-26.966702	-44.642361
1039.323120	-20.180321	-89.070343	-76.937790
1039.682861	-45.010998	-7.107368	-114.224159
>>>>>End Processed Spectral Data<<<<<
