Jaz Data File
++++++++++++++++++++++++++++++++++++
Date: Wed May 13 21:09:48 2015
User: jaz
Dark Spectrum Present: Yes
Reference Spectrum Present: Yes
Processed Spectrum Present: No
Spectrometers: JAZA2310
Integration Time (usec): 118000 (JAZA2310)
Spectra Averaged: 1 (JAZA2310)
Boxcar Smoothing: 0 (JAZA2310)
Correct for Electrical Dark: Yes (JAZA2310)
Strobe/Lamp Enabled: No (JAZA2310)
Correct for Detector Non-linearity: Yes (JAZA2310)
Correct for Stray Light: No (JAZA2310)
Number of Pixels in Processed Spectrum: 2048
>>>>>Begin Processed Spectral Data<<<<<
W	D	R	S
188.301102	0.000000	0.000000	0.000000
188.764923	0.000000	0.000000	0.000000
189.228699	-128.512161	-46.719418	-178.412994
189.692459	-98.673805	-118.790390	-113.726677
190.156158	-133.486664	-133.712875	-73.955772
190.619812	-96.187935	-39.268906	-6.903929
191.083435	-34.076653	42.624733	27.833641
191.547043	-48.977303	-34.302402	-86.381233
192.010590	-51.461159	-76.531044	-1.940159
192.474091	465.450836	492.315094	475.168060
192.937561	-1.804771	10.377120	60.071720
193.401001	-1.804771	52.543568	40.234974
193.864410	-1.804771	10.377120	-4.422026
194.327759	72.601570	0.451302	10.467405
194.791077	30.449402	17.820475	20.391611
195.254349	-14.214917	-24.370657	-21.797682
195.717575	-19.179722	-31.819342	-14.350334
196.180786	3.158570	12.858365	-21.797682
196.643951	65.165131	-14.440658	-11.868117
197.107071	-34.076653	-51.686974	17.910681
197.570145	-68.850838	-4.512267	-36.695278
198.033203	-34.076653	-16.922983	17.910681
198.496216	-66.366241	-29.336319	-11.868117
198.959167	-29.110588	-19.405481	25.353022
199.422089	0.676918	-29.336319	-98.809357
199.884979	10.602766	-49.203175	-39.178543
200.347855	13.083934	-46.719418	77.423500
200.810654	-41.526505	25.262827	-73.955772
201.273422	-51.461159	-83.986313	-49.112797
201.736160	-21.662315	47.584358	-24.280384
202.198853	-11.732706	30.223900	50.154205
202.661514	-16.697300	-26.853468	-6.903929
203.124130	13.083934	-34.302402	-103.781364
203.586700	-6.768529	30.223900	-54.080563
204.049240	-19.179722	-11.958369	-44.145458
204.511734	-19.179722	-19.405481	15.429716
204.974197	-21.662315	7.895839	-4.422026
205.436615	-66.366241	-11.958369	-66.501778
205.899002	-68.850838	22.782169	-21.797682
206.361343	-68.850838	-61.623356	-51.596596
206.823654	23.007700	-56.654953	-73.955772
207.285919	-21.662315	-16.922983	-46.629112
207.748123	-66.366241	-9.476254	-19.315149
208.210327	-26.627680	-26.853468	3.023193
208.672485	-111.104576	-86.471664	-59.048744
209.134583	-123.538017	-93.928215	-68.986313
209.596649	-61.397434	-16.922983	-31.728992
210.058670	20.526880	-111.330620	-31.728992
210.520676	-76.305130	-61.623356	-61.532963
210.982635	-71.335472	-83.986313	-54.080563
211.444534	-19.179722	2.932896	-29.246040
211.906403	0.676918	-26.853468	7.986128
212.368240	-121.051079	-19.405481	-24.280384
212.830048	55.248394	-88.957054	22.872368
213.291779	-56.429050	-24.370657	-4.422026
213.753494	-76.305130	-11.958369	7.986128
214.215179	-81.275208	5.414454	-76.440689
214.676819	-34.076653	-69.076721	-101.295349
215.138412	-66.366241	-96.414001	0.541535
215.599960	27.968960	47.584358	-59.048744
216.061493	-26.627680	-41.752281	-11.868117
216.522949	-46.493622	32.704247	10.467405
216.984406	5.640050	0.451302	25.353022
217.445801	20.526880	-16.922983	-54.080563
217.907166	-36.559811	35.184555	17.910681
218.368484	-21.662315	-19.405481	-73.955772
218.829773	-4.286632	52.543568	-39.178543
219.291031	-66.366241	-86.471664	-93.837845
219.752228	-116.077644	64.939758	12.948579
220.213379	-34.076653	17.820475	-39.178543
220.674500	23.007700	-34.302402	-73.955772
221.135574	-39.043137	25.262827	-73.955772
221.596634	-56.429050	22.782169	-31.728992
222.057648	-66.366241	-31.819342	-29.246040
222.518600	-34.076653	10.377120	-36.695278
222.979553	-41.526505	-46.719418	-86.381233
223.440430	-48.977303	-19.405481	-19.315149
223.901276	-68.850838	2.932896	-73.955772
224.362076	-14.214917	-14.440658	-51.596596
224.822845	-9.250599	-69.076721	-78.925644
225.283569	-21.662315	-11.958369	-61.532963
225.744278	-21.662315	-59.139072	-54.080563
226.204910	-11.732706	-51.686974	-19.315149
226.665512	-31.593534	-29.336319	-64.017349
227.126114	-46.493622	-44.235828	-34.212116
227.586639	-39.043137	10.377120	-68.986313
228.047119	-58.913223	-46.719418	-1.940159
228.507568	-53.945049	-133.712875	-66.501778
228.967972	15.565064	7.895839	-54.080563
229.428345	-73.820213	-11.958369	-54.080563
229.888687	-66.366241	-29.336319	-21.797682
230.348984	-6.768529	17.820475	-88.866684
230.809219	-24.144945	-64.107681	-51.596596
231.269440	-26.627680	-36.785568	-54.080563
231.729614	-31.593534	-54.170879	-14.350334
232.189758	-61.397434	-21.888016	-31.728992
232.649841	-56.429050	-93.928215	-46.629112
233.109894	-58.913223	12.858365	-6.903929
233.569901	80.037086	-21.888016	25.353022
234.029892	45.330078	-19.405481	-9.385937
234.489822	-78.790085	-6.994174	-21.797682
234.949707	15.565064	-24.370657	-59.048744
235.409561	-9.250599	-29.336319	12.948579
235.869385	-6.768529	-39.268906	-29.246040
236.329163	-130.999359	-16.922983	-64.017349
236.788895	-73.820213	-56.654953	20.391611
237.248581	-34.076653	-69.076721	-59.048744
237.708237	10.602766	-26.853468	45.194794
238.167847	-68.850838	-103.871834	-9.385937
238.627441	3.158570	7.895839	10.467405
239.086960	23.007700	59.981579	-41.661983
239.546463	-34.076653	-11.958369	-14.350334
240.005920	-56.429050	-51.686974	-73.955772
240.465332	-51.461159	-148.639175	-44.145458
240.924698	-48.977303	5.414454	-29.246040
241.384033	-68.850838	-56.654953	-31.728992
241.843338	-88.731094	-21.888016	-81.410782
242.302597	-140.949341	-39.268906	-49.112797
242.761810	-9.250599	27.743382	-34.212116
243.220993	8.121427	0.451302	-29.246040
243.680115	-51.461159	35.184555	15.429716
244.139221	-63.881821	-29.336319	-106.267570
244.598282	-86.245720	15.339438	-1.940159
245.057297	-93.702240	2.932896	-83.895958
245.516266	-88.731094	-36.785568	-6.903929
245.975189	-6.768529	-31.819342	-68.986313
246.434082	-71.335472	-54.170879	-24.280384
246.892944	-56.429050	-34.302402	27.833641
247.351761	-36.559811	-69.076721	-54.080563
247.810516	-34.076653	-16.922983	25.353022
248.269272	-53.945049	-54.170879	-34.212116
248.727951	-16.697300	-74.046181	5.504679
249.186600	-68.850838	-151.127274	-19.315149
249.645218	-39.043137	-86.471664	-61.532963
250.103790	-106.131935	-31.819342	-36.695278
250.562317	-66.366241	-93.928215	-39.178543
251.020813	-48.977303	-21.888016	-14.350334
251.479279	-46.493622	-31.819342	-14.350334
251.937668	-39.043137	-76.531044	20.391611
252.396057	-36.559811	22.782169	-29.246040
252.854385	-66.366241	-9.476254	-29.246040
253.312683	-66.366241	-59.139072	-31.728992
253.770920	-66.366241	-74.046181	0.541535
254.229126	-11.732706	-56.654953	32.794498
254.687302	-106.131935	0.451302	10.467405
255.145432	-68.850838	-59.139072	-68.986313
255.603500	-133.486664	-26.853468	-19.315149
256.061584	-29.110588	25.262827	-83.895958
256.519592	-16.697300	-91.442619	-86.381233
256.977570	-86.245720	-26.853468	-19.315149
257.435455	-58.913223	62.460686	35.274738
257.893372	-71.335472	-41.752281	22.872368
258.351196	-103.645737	-88.957054	-49.112797
258.808990	-21.662315	-44.235828	0.541535
259.266754	-81.275208	-14.440658	-31.728992
259.724487	-24.144945	92.202316	-21.797682
260.182190	-16.697300	-16.922983	-29.246040
260.639832	-34.076653	-44.235828	-46.629112
261.097443	-153.389267	-51.686974	-6.903929
261.554993	-66.366241	-4.512267	-6.903929
262.012512	-58.913223	-66.592117	-34.212116
262.469971	-21.662315	-86.471664	-16.832724
262.927429	-61.397434	20.301340	-41.661983
263.384827	-48.977303	5.414454	-66.501778
263.842194	-16.697300	-11.958369	-16.832724
264.299530	-68.850838	42.624733	-54.080563
264.756805	-26.627680	7.895839	-36.695278
265.214050	-41.526505	10.377120	5.504679
265.671234	37.890171	-6.994174	-51.596596
266.128387	-111.104576	-9.476254	-9.385937
266.585510	-81.275208	-49.203175	-29.246040
267.042572	-39.043137	12.858365	0.541535
267.499573	20.526880	-14.440658	42.714901
267.956604	0.676918	-56.654953	0.541535
268.413574	-31.593534	-26.853468	-46.629112
268.870483	-21.662315	-2.030464	10.467405
269.327362	-44.009975	-88.957054	-29.246040
269.784180	-53.945049	-21.888016	-4.422026
270.240936	-44.009975	20.301340	7.986128
270.697693	-26.627680	-113.817078	-91.352173
271.154419	52.768986	-88.957054	-168.456482
271.611053	-6.768529	-111.330620	-88.866684
272.067688	-88.731094	-41.752281	-39.178543
272.524292	-53.945049	0.451302	-91.352173
272.980835	13.083934	-59.139072	-26.763126
273.437347	-11.732706	10.377120	-4.422026
273.893799	15.565064	-86.471664	-54.080563
274.350250	-39.043137	-88.957054	37.754940
274.806610	55.248394	-153.615479	-56.564564
275.262939	-16.697300	5.414454	25.353022
275.719238	-163.343124	7.895839	-21.797682
276.175507	-103.645737	-126.251175	22.872368
276.631714	-121.051079	-39.268906	12.948579
277.087891	-61.397434	-31.819342	67.508858
277.544067	-71.335472	25.262827	-61.532963
278.000122	-91.216583	22.782169	-9.385937
278.456177	-6.768529	-64.107681	17.910681
278.912201	-123.538017	45.104565	-76.440689
279.368164	-63.881821	-49.203175	-54.080563
279.824097	-78.790085	-6.994174	-73.955772
280.279968	-46.493622	-54.170879	-16.832724
280.735840	-44.009975	-81.501144	-66.501778
281.191620	-118.564308	-41.752281	-44.145458
281.647400	-68.850838	30.223900	-9.385937
282.103149	-46.493622	-11.958369	-54.080563
282.558838	-36.559811	47.584358	-93.837845
283.014465	-11.732706	-39.268906	-59.048744
283.470062	-14.214917	-54.170879	-41.661983
283.925629	-29.110588	-31.819342	-21.797682
284.381134	-26.627680	-34.302402	-148.548706
284.836639	-26.627680	12.858365	-68.986313
285.292053	8.121427	-14.440658	-16.832724
285.747467	-138.461670	-76.531044	-83.895958
286.202820	-66.366241	-76.531044	-116.213234
286.658142	-71.335472	-21.888016	-59.048744
287.113434	-76.305130	-39.268906	-39.178543
287.568634	-103.645737	-49.203175	-9.385937
288.023804	-61.397434	-51.686974	-44.145458
288.478973	-61.397434	-41.752281	-98.809357
288.934113	-91.216583	-64.107681	-108.753807
289.389130	-46.493622	0.451302	0.541535
289.844208	15.565064	-19.405481	-24.280384
290.299164	-118.564308	7.895839	-4.422026
290.754089	-46.493622	-51.686974	32.794498
291.208984	-63.881821	15.339438	-34.212116
291.663879	-73.820213	-44.235828	47.674519
292.118683	-58.913223	-34.302402	-113.726677
292.573456	-19.179722	-2.030464	10.467405
293.028198	-31.593534	-39.268906	35.274738
293.482849	40.370266	-9.476254	-151.036774
293.937561	0.676918	-29.336319	-46.629112
294.392151	10.602766	72.376228	42.714901
294.846741	37.890171	-51.686974	-9.385937
295.301239	20.526880	-69.076721	0.541535
295.755737	-6.768529	-86.471664	-44.145458
296.210175	-63.881821	-121.277229	-1.940159
296.664581	-9.250599	-141.175537	-81.410782
297.118958	-83.760376	7.895839	-31.728992
297.573242	-26.627680	-61.623356	-19.315149
298.027557	5.640050	-29.336319	-56.564564
298.481812	-9.250599	-11.958369	-103.781364
298.935974	-41.526505	-51.686974	-4.422026
299.390137	-14.214917	-11.958369	-44.145458
299.844238	-128.512161	-6.994174	-9.385937
300.298340	-48.977303	37.664696	-4.422026
300.752350	-58.913223	12.858365	5.504679
301.206360	-88.731094	20.301340	-31.728992
301.660278	-21.662315	-46.719418	-9.385937
302.114197	-88.731094	-11.958369	-76.440689
302.568054	-39.043137	0.451302	12.948579
303.021881	-78.790085	7.895839	42.714901
303.475677	-46.493622	0.451302	-29.246040
303.929413	-14.214917	-14.440658	-31.728992
304.383118	-128.512161	50.063980	-21.797682
304.836761	-26.627680	7.895839	-56.564564
305.290375	-14.214917	-29.336319	10.467405
305.743958	-58.913223	-44.235828	-61.532963
306.197510	-16.697300	-54.170879	-61.532963
306.650970	-31.593534	-36.785568	-26.763126
307.104431	-73.820213	104.590317	-9.385937
307.557800	-78.790085	20.301340	-34.212116
308.011169	-51.461159	42.624733	10.467405
308.464508	-83.760376	15.339438	-1.940159
308.917755	-19.179722	-21.888016	-61.532963
309.371063	-29.110588	-91.442619	-36.695278
309.824219	-73.820213	-56.654953	-6.903929
310.277374	-29.110588	-31.819342	-9.385937
310.730499	-9.250599	15.339438	-98.809357
311.183563	-44.009975	-64.107681	30.314087
311.636597	-66.366241	10.377120	-101.295349
312.089569	-53.945049	-11.958369	-41.661983
312.542511	42.850189	62.460686	-66.501778
312.995422	27.968960	-136.200302	-76.440689
313.448273	-78.790085	-56.654953	-113.726677
313.901093	0.676918	-39.268906	12.948579
314.353882	-24.144945	-4.512267	0.541535
314.806580	-34.076653	2.932896	-21.797682
315.259308	-76.305130	-69.076721	20.391611
315.711975	-34.076653	-71.561363	-31.728992
316.164581	-53.945049	25.262827	22.872368
316.617126	-16.697300	-14.440658	-14.350334
317.069672	-44.009975	-93.928215	10.467405
317.522156	-91.216583	-51.686974	5.504679
317.974579	-121.051079	-123.764122	25.353022
318.427002	-16.697300	-69.076721	-71.471024
318.879333	-19.179722	67.418655	-31.728992
319.331665	-41.526505	-56.654953	-128.647781
319.783936	-34.076653	-59.139072	-36.695278
320.236176	-44.009975	32.704247	12.948579
320.688354	-68.850838	17.820475	-54.080563
321.140503	-6.768529	-39.268906	-73.955772
321.592651	-76.305130	12.858365	-41.661983
322.044647	-111.104576	-46.719418	-71.471024
322.496704	-41.526505	-31.819342	7.986128
322.948639	-36.559811	-34.302402	-26.763126
323.400604	-53.945049	67.418655	7.986128
323.852509	32.929806	20.301340	-51.596596
324.304352	-31.593534	-34.302402	-66.501778
324.756165	5.640050	-4.512267	-49.112797
325.207916	-86.245720	30.223900	-16.832724
325.659668	-16.697300	-88.957054	-34.212116
326.111328	-11.732706	-59.139072	-31.728992
326.562988	-78.790085	-51.686974	5.504679
327.014557	-36.559811	10.377120	-19.315149
327.466156	-16.697300	-64.107681	-34.212116
327.917664	-11.732706	-14.440658	10.467405
328.369110	-19.179722	-111.330620	-26.763126
328.820557	-103.645737	-21.888016	-41.661983
329.271942	-56.429050	-11.958369	25.353022
329.723297	-1.804771	-21.888016	20.391611
330.174561	-36.559811	-44.235828	-24.280384
330.625854	-53.945049	-16.922983	-6.903929
331.077026	-135.974152	-91.442619	-71.471024
331.528229	-4.286632	5.414454	-9.385937
331.979370	-11.732706	-88.957054	3.023193
332.430450	-26.627680	-69.076721	-29.246040
332.881500	10.602766	-79.016075	3.023193
333.332489	40.370266	59.981579	0.541535
333.783478	-21.662315	72.376228	-9.385937
334.234406	-78.790085	37.664696	40.234974
334.685303	-44.009975	79.811768	32.794498
335.136078	-24.144945	-19.405481	-1.940159
335.586914	52.768986	-44.235828	47.674519
336.037659	10.602766	-36.785568	40.234974
336.488342	-78.790085	-29.336319	-51.596596
336.939026	-48.977303	-91.442619	-54.080563
337.389648	-31.593534	-83.986313	-29.246040
337.840240	-29.110588	-39.268906	-16.832724
338.290771	-31.593534	-61.623356	20.391611
338.741272	-21.662315	-4.512267	12.948579
339.191681	-36.559811	-14.440658	-29.246040
339.642120	-41.526505	-9.476254	7.986128
340.092468	-41.526505	-16.922983	-14.350334
340.542816	-21.662315	32.704247	60.071720
340.993103	-66.366241	30.223900	-36.695278
341.443329	-96.187935	-51.686974	60.071720
341.893555	-165.831879	-88.957054	-76.440689
342.343689	-36.559811	-2.030464	10.467405
342.793793	-51.461159	-54.170879	-59.048744
343.243866	-51.461159	-19.405481	50.154205
343.693878	-21.662315	-39.268906	-51.596596
344.143890	-58.913223	-6.994174	-51.596596
344.593842	-24.144945	-11.958369	-11.868117
345.043732	-48.977303	-51.686974	12.948579
345.493591	-73.820213	-54.170879	84.858414
345.943359	-56.429050	-54.170879	17.910681
346.393158	-56.429050	-54.170879	30.314087
346.842896	-113.591026	-51.686974	-54.080563
347.292542	-4.286632	-34.302402	60.071720
347.742218	8.121427	-71.561363	-11.868117
348.191803	-66.366241	-74.046181	35.274738
348.641357	-36.559811	-46.719418	0.541535
349.090881	-76.305130	10.377120	20.391611
349.540314	-81.275208	2.932896	-24.280384
349.989777	18.046024	-54.170879	-39.178543
350.439148	-53.945049	-118.790390	-9.385937
350.888489	-86.245720	-6.994174	-66.501778
351.337799	-88.731094	52.543568	12.948579
351.787048	-44.009975	-81.501144	25.353022
352.236267	-24.144945	-19.405481	52.633720
352.685425	27.968960	-138.687897	10.467405
353.134552	-9.250599	10.377120	55.113132
353.583649	35.410042	-123.764122	47.674519
354.032684	-83.760376	-56.654953	22.872368
354.481659	-16.697300	27.743382	-19.315149
354.930634	-41.526505	-61.623356	52.633720
355.379517	-1.804771	-29.336319	32.794498
355.828430	-113.591026	-29.336319	-51.596596
356.277222	-121.051079	-128.738281	15.429716
356.726013	-29.110588	-93.928215	-41.661983
357.174774	-29.110588	-76.531044	22.872368
357.623444	-76.305130	37.664696	-46.629112
358.072113	-44.009975	-26.853468	-11.868117
358.520721	-78.790085	7.895839	22.872368
358.969299	-83.760376	-21.888016	35.274738
359.417786	-16.697300	-2.030464	10.467405
359.866302	-14.214917	-6.994174	-36.695278
360.314697	-41.526505	0.451302	12.948579
360.763123	72.601570	2.932896	5.504679
361.211456	-116.077644	20.301340	10.467405
361.659760	-44.009975	22.782169	10.467405
362.108032	-36.559811	62.460686	-11.868117
362.556244	-145.924973	-113.817078	-4.422026
363.004456	-29.110588	-29.336319	10.467405
363.452576	-19.179722	-6.994174	-16.832724
363.900696	-116.077644	-44.235828	-46.629112
364.348663	40.370266	17.820475	3.023193
364.796722	-11.732706	-6.994174	-49.112797
365.244690	-76.305130	-24.370657	3.023193
365.692596	-71.335472	32.704247	-1.940159
366.140472	-73.820213	-51.686974	-36.695278
366.588287	-14.214917	22.782169	-26.763126
367.036102	-34.076653	-46.719418	62.550892
367.483826	-34.076653	-21.888016	-91.352173
367.931549	-66.366241	-44.235828	47.674519
368.379181	-66.366241	35.184555	-39.178543
368.826843	-1.804771	-61.623356	-9.385937
369.274384	-83.760376	-26.853468	-1.940159
369.721924	32.929806	-4.512267	0.541535
370.169403	-46.493622	-31.819342	129.448776
370.616821	-19.179722	-51.686974	32.794498
371.064270	-34.076653	-44.235828	55.113132
371.511566	75.080223	-93.928215	0.541535
371.958923	-44.009975	-2.030464	89.814537
372.406158	10.602766	-46.719418	-6.903929
372.853424	-26.627680	-26.853468	62.550892
373.300568	-6.768529	-66.592117	37.754940
373.747711	-6.768529	-2.030464	20.391611
374.194794	-73.820213	-51.686974	-6.903929
374.641846	-56.429050	-11.958369	37.754940
375.088898	-143.437103	-4.512267	47.674519
375.535828	-11.732706	-49.203175	84.858414
375.982758	-6.768529	-26.853468	-9.385937
376.429596	-56.429050	-14.440658	25.353022
376.876465	10.602766	-16.922983	-9.385937
377.323242	-16.697300	-31.819342	0.541535
377.769989	-71.335472	17.820475	92.292473
378.216675	-123.538017	-26.853468	-4.422026
378.663330	-39.043137	-14.440658	-16.832724
379.109985	-106.131935	-34.302402	25.353022
379.556519	32.929806	-24.370657	124.495911
380.003052	-53.945049	5.414454	-46.629112
380.449524	-14.214917	-2.030464	20.391611
380.895996	-91.216583	-31.819342	-51.596596
381.342377	-16.697300	-81.501144	7.986128
381.788727	-96.187935	27.743382	-9.385937
382.235046	-11.732706	-49.203175	7.986128
382.681274	-24.144945	37.664696	-19.315149
383.127533	-56.429050	-31.819342	-51.596596
383.573669	-31.593534	-44.235828	-21.797682
384.019836	25.488348	12.858365	10.467405
384.465912	5.640050	-4.512267	57.592514
384.911957	-14.214917	-79.016075	-34.212116
385.357971	-126.025009	-14.440658	0.541535
385.803925	-61.397434	45.104565	-19.315149
386.249847	-11.732706	-36.785568	17.910681
386.695679	23.007700	15.339438	60.071720
387.141541	-48.977303	10.377120	32.794498
387.587311	-53.945049	-108.844276	-64.017349
388.033051	-78.790085	-34.302402	3.023193
388.478729	-108.618172	-86.471664	-14.350334
388.924408	-83.760376	-76.531044	-21.797682
389.369995	-81.275208	-88.957054	35.274738
389.815552	-106.131935	-46.719418	-19.315149
390.261078	8.121427	-9.476254	-29.246040
390.706543	-51.461159	69.897461	77.423500
391.152008	-91.216583	22.782169	55.113132
391.597351	-96.187935	-76.531044	3.023193
392.042725	-4.286632	-81.501144	69.987656
392.487976	-48.977303	30.223900	87.336555
392.933289	-91.216583	-29.336319	20.391611
393.378479	-68.850838	12.858365	99.725555
393.823639	-56.429050	-2.030464	40.234974
394.268768	-44.009975	-44.235828	-11.868117
394.713837	-36.559811	30.223900	65.029892
395.158905	-9.250599	12.858365	47.674519
395.603851	-31.593534	-6.994174	25.353022
396.048798	-29.110588	74.854820	30.314087
396.493683	-63.881821	25.262827	10.467405
396.938568	-93.702240	-51.686974	109.634949
397.383392	-39.043137	7.895839	-6.903929
397.828156	-73.820213	42.624733	57.592514
398.272888	13.083934	25.262827	82.380234
398.717560	-61.397434	15.339438	136.877274
399.162201	-83.760376	-36.785568	20.391611
399.606781	-48.977303	40.144733	50.154205
400.051361	-83.760376	77.333382	50.154205
400.495819	-36.559811	30.223900	94.770256
400.940308	-36.559811	45.104565	47.674519
401.384705	-66.366241	124.405861	102.203026
401.829102	-76.305130	64.939758	62.550892
402.273438	-73.820213	17.820475	122.019356
402.717682	-133.486664	69.897461	65.029892
403.161926	-9.250599	40.144733	52.633720
403.606110	-29.110588	40.144733	193.799210
404.050293	-61.397434	77.333382	151.731628
404.494385	-106.131935	102.112946	82.380234
404.938446	-130.999359	47.584358	176.480774
405.382477	-128.512161	55.022987	193.799210
405.826447	-133.486664	77.333382	186.377640
406.270386	-48.977303	74.854820	102.203026
406.714233	-11.732706	114.498901	218.531357
407.158081	-86.245720	144.214859	161.632462
407.601868	-51.461159	136.787262	149.256134
408.045624	8.121427	109.544807	238.309906
408.489319	-44.009975	151.641571	203.693298
408.933014	-48.977303	255.521149	258.082245
409.376617	40.370266	270.346802	317.361389
409.820190	-68.850838	228.331497	282.788696
410.263702	-73.820213	262.934418	255.610992
410.707184	77.558708	211.022781	371.651520
411.150635	32.929806	282.698822	376.584686
411.594025	-66.366241	282.698822	371.651520
412.037384	-78.790085	287.638947	413.571167
412.480682	-66.366241	393.757996	576.060669
412.923981	20.526880	428.270233	504.713654
413.367126	-29.110588	408.551239	534.246033
413.810333	-44.009975	526.774719	620.306213
414.253479	5.640050	563.675537	553.926697
414.696533	-78.790085	610.386963	693.983582
415.139587	-14.214917	706.166077	752.867676
415.582581	-26.627680	804.260437	902.304565
416.025543	-81.275208	762.587463	875.380615
416.468414	-53.945049	877.739624	875.380615
416.911285	3.158570	995.146362	899.857239
417.354065	-51.461159	1019.581665	1161.232544
417.796875	-51.461159	1073.310303	1173.423584
418.239594	-86.245720	1195.273071	1317.123779
418.682281	-26.627680	1236.694702	1477.550659
419.124908	-78.790085	1380.274048	1482.406982
419.567505	-19.179722	1504.168091	1717.574707
420.010071	-88.731094	1574.529663	1623.106201
420.452545	8.121427	1615.746948	1732.098389
420.895020	-61.397434	1794.916748	1954.474121
421.337372	-9.250599	1983.348267	2094.364014
421.779785	-26.627680	2135.235352	2337.424805
422.222107	-11.732706	2270.021973	2375.867920
422.664368	10.602766	2370.976318	2546.261719
423.106628	23.007700	2740.180908	2888.495361
423.548798	-76.305130	2936.174561	3005.480225
423.990967	-41.526505	3041.177246	3134.239502
424.433044	-73.820213	3098.403320	3341.332520
424.875092	-86.245720	3326.977539	3540.881592
425.317078	-116.077644	3609.597412	3740.044434
425.759064	-148.412964	3780.219238	4068.788818
426.200989	-88.731094	4030.913574	4165.564453
426.642853	-71.335472	4181.993164	4436.554688
427.084686	-14.214917	4525.868164	4777.303711
427.526459	-44.009975	4786.604004	5205.911621
427.968201	-73.820213	5025.675781	5339.091309
428.409912	-98.673805	5404.372559	5369.444824
428.851563	-121.051079	5840.016602	6072.424316
429.293121	-41.526505	5895.814941	6193.058105
429.734711	0.676918	6255.564453	6403.885254
430.176239	5.640050	6512.549316	6810.630371
430.617706	35.410042	6741.307617	6928.249512
431.059113	-24.144945	7084.822754	7285.055664
431.500488	-36.559811	7215.990234	7523.907715
431.941833	-71.335472	7629.330078	7901.960938
432.383087	-48.977303	7741.624023	8205.907227
432.824341	-91.216583	8210.390625	8609.342773
433.265533	-96.187935	8511.360352	9050.158203
433.706726	-51.461159	8929.787109	9276.835938
434.147827	-46.493622	9036.463867	9532.544922
434.588867	-76.305130	9491.760742	10179.967773
435.029877	5.640050	9864.428711	10472.296875
435.470825	-86.245720	10319.375000	10799.939453
435.911804	-81.275208	10692.215820	10979.177734
436.352661	-78.790085	11019.398438	11417.470703
436.793518	-130.999359	11316.865234	11685.243164
437.234283	-6.768529	11754.268555	11954.824219
437.675049	-26.627680	11936.931641	12566.011719
438.115723	-71.335472	12454.954102	12814.366211
438.556396	-19.179722	12951.635742	13385.324219
438.997040	-41.526505	13261.445313	13597.389648
439.437561	-41.526505	13718.716797	14012.128906
439.878113	-108.618172	13937.094727	14683.558594
440.318573	-58.913223	14338.062500	15184.482422
440.759033	-31.593534	15021.907227	15346.904297
441.199341	-71.335472	15476.270508	16418.599609
441.639709	-24.144945	16144.798828	16471.138672
442.079956	-39.043137	16287.150391	17000.687500
442.520264	23.007700	16810.275391	17654.546875
442.960510	-78.790085	17724.427734	18489.623047
443.400604	-61.397434	17691.632813	18601.111328
443.840759	-48.977303	18417.404297	19167.380859
444.280762	-113.591026	18963.949219	19860.791016
444.720825	-76.305130	19659.417969	20215.359375
445.160767	-66.366241	20121.148438	20988.626953
445.600739	-26.627680	20331.318359	21050.005859
446.040558	-16.697300	20519.650391	21659.810547
446.480438	-86.245720	20946.898438	21563.244141
446.920258	-53.945049	21791.443359	22261.605469
447.359955	-108.618172	21765.095703	22349.523438
447.799713	3.158570	22820.123047	23236.333984
448.239319	-4.286632	22164.830078	22604.593750
448.678955	-71.335472	22404.402344	23106.386719
449.118500	-21.662315	23212.023438	23436.841797
449.558014	-71.335472	22740.906250	23128.408203
449.997498	-16.697300	22701.302734	22921.445313
450.436951	13.083934	22738.707031	22875.222656
450.876343	-9.250599	22459.369141	22844.410156
451.315674	-71.335472	22400.005859	22813.601563
451.754974	-58.913223	22052.781250	22281.384766
452.194183	5.640050	21666.312500	22055.060547
452.633392	-58.913223	21503.917969	21666.396484
453.072510	-31.593534	20651.078125	20815.484375
453.511688	-31.593534	20421.097656	19957.076172
453.950684	-71.335472	19869.462891	19464.810547
454.389740	-78.790085	18981.441406	18889.691406
454.828735	109.770081	18592.287109	18393.437500
455.267639	-76.305130	18273.128906	17905.957031
455.706543	-78.790085	17024.667969	16913.185547
456.145325	-96.187935	16727.126953	16247.812500
456.584137	-11.732706	15916.953125	15689.074219
457.022858	-113.591026	15223.916992	14839.632813
457.461578	8.121427	14404.099609	14280.899414
457.900208	0.676918	13745.198242	13716.590820
458.338867	-44.009975	13358.721680	12989.360352
458.777405	-44.009975	12907.339844	12395.081055
459.215912	-4.286632	12208.353516	11883.571289
459.654388	-83.760376	11961.422852	11428.637695
460.092773	-88.731094	11290.047852	11211.889648
460.531189	-53.945049	10777.437500	10734.914063
460.969513	-58.913223	10425.030273	10310.461914
461.407806	-1.804771	10008.720703	9972.743164
461.846008	-21.662315	9812.538086	9706.527344
462.284241	-81.275208	9482.714844	9240.591797
462.722351	-101.159721	9260.898438	9050.158203
463.160461	-98.673805	9025.118164	8709.446289
463.598541	-78.790085	8813.937500	8627.548828
464.036530	-41.526505	8472.637695	8527.385742
464.474518	-24.144945	8297.102539	8276.653320
464.912384	-46.493622	8148.744629	8098.576660
465.350281	-76.305130	8059.651367	7911.112305
465.788086	-46.493622	7562.825684	7750.870605
466.225891	42.850189	7590.349121	7542.262695
466.663605	-26.627680	7716.424316	7624.828613
467.101318	13.083934	7535.296387	7236.771973
467.539001	-1.804771	7255.084473	7179.268066
467.976563	-24.144945	7386.078125	7257.467773
468.414124	-58.913223	7034.160645	6983.562500
468.851593	-44.009975	6960.434570	7066.485840
469.289063	-1.804771	6925.860352	6752.934570
469.726440	-11.732706	6692.817871	6667.495117
470.163849	-24.144945	6475.539063	6394.625000
470.601135	30.449402	6468.598633	6609.733398
471.038422	8.121427	6470.912109	6348.316895
471.475677	-31.593534	6341.284668	6348.316895
471.912811	10.602766	6172.103027	6028.316895
472.350006	-31.593534	6083.943848	6109.554688
472.787048	-53.945049	5851.643555	6009.740723
473.224121	-66.366241	5921.379883	5898.223145
473.661072	-175.787903	5872.568359	5809.866699
474.098053	3.158570	5932.999023	5777.298340
474.534943	-24.144945	5726.016113	5842.426758
474.971802	-56.429050	5691.097168	5688.853516
475.408630	25.488348	5821.411621	5616.653320
475.845367	-71.335472	5495.359863	5465.123535
476.282104	-11.732706	5560.641113	5693.509766
476.718750	-123.538017	5439.376465	5346.096680
477.155426	32.929806	5467.371582	5397.456543
477.591949	-58.913223	5511.683594	5357.770996
478.028503	-53.945049	5390.369141	5329.750000
478.464966	-63.881821	5367.025391	5245.647461
478.901428	-58.913223	5313.316895	5439.460938
479.337860	-58.913223	5348.346680	5315.737305
479.774170	-1.804771	5324.994629	5369.444824
480.210510	-26.627680	5170.753906	5341.426270
480.646698	-66.366241	5369.359863	5374.113770
481.082947	-4.286632	5465.039063	5434.794434
481.519073	-11.732706	5495.359863	5476.786621
481.955200	-81.275208	5521.010742	5388.119629
482.391266	3.158570	5474.369141	5404.458496
482.827301	-31.593534	5553.648438	5628.301270
483.263306	0.676918	5472.037109	5658.580566
483.699188	5.640050	5621.227539	5698.166504
484.135101	-29.110588	5700.410156	5793.583496
484.570923	8.121427	5753.945313	5828.474121
485.006744	-31.593534	5816.759766	5868.003906
485.442413	-31.593534	5686.439941	5705.150879
485.878174	-6.768529	6053.770020	5947.024414
486.313782	-86.245720	6063.055176	5891.250488
486.749390	-24.144945	6179.060547	6025.995117
487.184998	0.676918	6076.981445	6165.230469
487.620453	-48.977303	6109.470703	6325.156250
488.055939	18.046024	6216.159668	6422.401855
488.491333	-53.945049	6341.284668	6450.172363
488.926727	-56.429050	6362.127441	6464.055664
489.362030	18.046024	6440.832031	6561.192871
489.797302	-1.804771	6808.239258	6815.245117
490.232513	-9.250599	6935.080566	7029.637207
490.667755	3.158570	6831.310547	7034.244141
491.102905	-66.366241	7199.889160	7305.743164
491.537964	15.565064	7209.089844	7232.172852
491.973022	-66.366241	7436.602539	7526.202148
492.407990	18.046024	7608.694824	7567.496582
492.842957	-56.429050	7821.775391	7929.413086
493.277832	-44.009975	8091.640137	8084.869141
493.712738	-71.335472	8171.579102	8340.520508
494.147491	-26.627680	8217.238281	8386.121094
494.582275	-88.731094	8417.949219	8648.027344
495.017029	-21.662315	8723.006836	8791.292969
495.451660	32.929806	9006.964844	8932.139648
495.886292	-36.559811	9079.564453	9322.127930
496.320831	-113.591026	9631.907227	9564.193359
496.755402	-78.790085	9699.669922	9801.336914
497.189850	-68.850838	9954.627930	10278.973633
497.624298	65.165131	10373.335938	10485.774414
498.058655	-44.009975	10631.634766	10359.928711
498.493042	-19.179722	10817.790039	10820.113281
498.927368	-48.977303	10961.181641	11200.708984
499.361572	-34.076653	11187.209961	11321.416016
499.795807	-16.697300	11662.864258	11625.031250
500.229919	-98.673805	12199.461914	12099.470703
500.664063	-66.366241	12197.238281	12403.964844
501.098083	-86.245720	12630.266602	12719.052734
501.532104	-140.949341	12900.694336	12911.850586
501.966064	-39.043137	13219.426758	13509.053711
502.399994	0.676918	13690.025391	13480.336914
502.833893	-103.645737	14007.640625	13798.230469
503.267700	-66.366241	14382.088867	14236.858398
503.701477	13.083934	14577.916992	14690.155273
504.135193	-44.009975	14738.443359	14850.621094
504.568909	-88.731094	15335.851563	15256.922852
505.002502	-88.731094	15594.708008	15250.336914
505.436127	-36.559811	16028.699219	15851.288086
505.869629	-46.493622	16190.792969	16179.921875
506.303162	-19.179722	16554.238281	16777.535156
506.736603	-24.144945	16895.603516	16930.687500
507.169983	-93.702240	17228.078125	17328.753906
507.603363	-24.144945	17628.230469	17805.396484
508.036621	-41.526505	18082.947266	18319.113281
508.469940	-11.732706	18395.542969	18437.158203
508.903107	-44.009975	18828.394531	19064.609375
509.336304	-56.429050	19453.796875	19340.144531
509.769379	-106.131935	19683.482422	19714.193359
510.202484	-14.214917	19659.417969	19803.898438
510.635529	-6.768529	20011.708984	20119.041016
511.068481	-96.187935	20791.300781	20548.205078
511.501434	-53.945049	21010.466797	20907.529297
511.934265	-98.673805	21174.898438	21403.076172
512.367126	-21.662315	21973.705078	22118.769531
512.799927	-93.702240	21721.191406	21820.066406
513.232605	-6.768529	22178.013672	21754.201172
513.665344	-26.627680	22336.253906	22597.994141
514.097961	30.449402	23033.638672	23247.347656
514.530579	-6.768529	23286.919922	23408.189453
514.963135	-73.820213	23864.542969	23842.562500
515.395691	-71.335472	23985.900391	23910.957031
515.828064	-66.366241	24533.564453	24533.642578
516.260498	8.121427	24440.763672	24723.724609
516.692871	-44.009975	25241.259766	25084.222656
517.125183	-11.732706	25442.718750	25365.304688
517.557373	23.007700	25841.460938	25451.656250
517.989624	-78.790085	25950.064453	25737.394531
518.421753	-9.250599	26457.919922	26455.785156
518.853943	18.046024	26904.066406	26475.753906
519.286072	-36.559811	27183.902344	26933.013672
519.718018	8.121427	27366.080078	27292.841797
520.150024	-11.732706	27526.080078	27675.080078
520.581909	-58.913223	27979.583984	27855.150391
521.013855	-113.591026	27968.464844	28215.396484
521.445679	-41.526505	28940.595703	28460.080078
521.877502	-9.250599	28678.027344	28791.585938
522.309204	-44.009975	29002.906250	29327.914063
522.740906	-48.977303	29410.181641	28962.929688
523.172546	32.929806	30046.757813	29116.482422
523.604187	-88.731094	30144.691406	29704.064453
524.035767	-83.760376	30240.400391	29924.419922
524.467224	-58.913223	30024.500000	29940.000000
524.898682	-16.697300	30569.791016	30581.001953
525.330078	-76.305130	30805.683594	30974.876953
525.761475	-21.662315	31290.720703	30632.185547
526.192749	-91.216583	31337.437500	30894.773438
526.624023	-58.913223	31624.365234	31046.078125
527.055237	20.526880	31497.591797	31315.275391
527.486389	-76.305130	31733.339844	31815.695313
527.917542	-39.043137	32424.695313	32098.056641
528.348572	-48.977303	32364.693359	32162.519531
528.779663	-81.275208	32460.250000	32304.771484
529.210571	-76.305130	32851.253906	32366.996094
529.641541	-91.216583	33339.742188	32391.441406
530.072388	-19.179722	33701.480469	33144.464844
530.503235	42.850189	33437.406250	33211.070313
530.934082	-56.429050	33752.507813	33364.242188
531.364746	-41.526505	33881.175781	33108.937500
531.795532	-66.366241	34151.757813	33950.019531
532.226135	15.565064	34386.781250	34032.082031
532.656738	-63.881821	33903.359375	33810.269531
533.087280	30.449402	34160.628906	33941.148438
533.517822	-39.043137	34900.972656	34635.125000
533.948242	-73.820213	34351.308594	34422.332031
534.378662	-21.662315	35279.812500	34896.621094
534.809082	-83.760376	35359.554688	35093.804688
535.239319	-21.662315	35372.839844	35534.613281
535.669617	-4.286632	35667.414063	35317.546875
536.099792	-36.559811	35773.718750	35306.472656
536.529968	-78.790085	36198.906250	35795.945313
536.960083	-14.214917	36367.214844	35647.562500
537.390137	-39.043137	36380.503906	36190.128906
537.820190	-31.593534	36659.566406	35627.628906
538.250183	13.083934	36453.585938	36265.421875
538.680115	-16.697300	36484.593750	36989.726563
539.109985	-11.732706	37428.488281	37204.675781
539.539795	-44.009975	37271.093750	36960.925781
539.969543	-46.493622	37863.257813	37091.656250
540.399292	3.158570	37565.972656	37382.007813
540.828979	-4.286632	38069.730469	37872.218750
541.258606	-39.043137	38340.789063	37461.824219
541.688171	-19.179722	38345.238281	38116.449219
542.117737	-26.627680	38527.582031	38145.324219
542.547302	-31.593534	38649.960938	38087.578125
542.976685	-29.110588	39004.156250	38863.820313
543.406128	8.121427	39050.984375	38565.480469
543.835388	37.890171	39171.460938	38915.070313
544.264771	-106.131935	39716.964844	39285.398438
544.693970	0.676918	39846.945313	39234.042969
545.123230	5.640050	40298.472656	39634.191406
545.552307	18.046024	40406.574219	39743.925781
545.981506	-24.144945	40458.414063	39611.812500
546.410583	-44.009975	40781.324219	39851.511719
546.839539	-98.673805	40774.539063	40449.472656
547.268555	-9.250599	41062.269531	40156.839844
547.697449	-24.144945	41455.855469	41146.359375
548.126282	-14.214917	41617.980469	40955.753906
548.555054	-71.335472	42060.644531	41128.191406
548.983887	-1.804771	41558.570313	40976.156250
549.412598	-11.732706	42272.746094	41467.339844
549.841309	20.526880	41833.207031	41540.378906
550.269958	-44.009975	42497.199219	41510.699219
550.698486	-61.397434	42596.980469	41750.785156
551.127075	-19.179722	42745.832031	42007.816406
551.555481	-26.627680	42941.839844	42543.667969
551.983948	-56.429050	43143.304688	42254.355469
552.412292	-26.627680	43676.828125	42806.507813
552.840698	-16.697300	43237.289063	42825.164063
553.268860	3.158570	43743.371094	43824.390625
553.697205	-16.697300	44111.210938	43591.507813
554.125366	-11.732706	44771.734375	43850.605469
554.553467	-53.945049	45011.722656	44063.339844
554.981628	-24.144945	45065.816406	43919.808594
555.409607	-31.593534	45787.085938	44448.609375
555.837646	-66.366241	45716.753906	45009.351563
556.265564	-19.179722	46250.664063	45342.632813
556.693481	-78.790085	46120.773438	45327.750000
557.121338	13.083934	46664.441406	46105.617188
557.549133	-68.850838	47205.285156	46568.929688
557.976929	-51.461159	47775.753906	46843.675781
558.404602	-9.250599	47967.738281	46929.750000
558.832275	-121.051079	48444.335938	47276.699219
559.259888	8.121427	48400.140625	47719.332031
559.687439	-71.335472	49242.121094	48449.964844
560.114929	-98.673805	49096.945313	48672.167969
560.542419	-86.245720	49963.734375	48688.910156
560.969788	-44.009975	49828.769531	48826.082031
561.397156	-41.526505	49779.089844	49085.695313
561.824524	-29.110588	50445.289063	49517.871094
562.251770	-121.051079	50720.214844	49875.734375
562.679016	-46.493622	50686.812500	49787.953125
563.106140	-76.305130	51032.308594	49738.355469
563.533264	42.850189	51242.757813	50233.125000
563.960327	-46.493622	50964.636719	49928.558594
564.387329	-41.526505	51075.480469	50102.535156
564.814331	-21.662315	51217.894531	50055.230469
565.241272	-46.493622	51155.863281	50031.609375
565.668213	18.046024	51641.054688	50242.054688
566.094971	-46.493622	51124.917969	50845.269531
566.521790	-78.790085	51517.996094	50544.718750
566.948425	-63.881821	51430.058594	50523.613281
567.375183	-36.559811	51599.960938	50553.769531
567.801819	-71.335472	51420.656250	50436.386719
568.228394	-81.275208	51793.429688	50930.988281
568.654846	23.007700	51492.839844	50765.957031
569.081421	8.121427	51698.074219	50547.738281
569.507874	-11.732706	51348.707031	50967.816406
569.934265	-73.820213	51280.089844	50635.386719
570.360596	-63.881821	51818.921875	50571.882813
570.786865	-78.790085	51615.761719	50677.820313
571.213074	-91.216583	51828.492188	50848.324219
571.639282	-51.461159	51940.417969	51186.968750
572.065430	0.676918	51774.324219	50961.675781
572.491516	-29.110588	52198.347656	50702.097656
572.917603	13.083934	52056.125000	51007.789063
573.343567	-103.645737	51969.289063	51029.339844
573.769531	-108.618172	52007.839844	51026.261719
574.195435	10.602766	52065.792969	50937.121094
574.621277	-31.593534	52130.359375	51004.714844
575.047119	-46.493622	52312.125000	51081.765625
575.472839	-34.076653	52495.371094	50829.992188
575.898560	8.121427	52201.589844	51436.445313
576.324158	-61.397434	52030.363281	51168.371094
576.749817	37.890171	52344.738281	51100.296875
577.175293	-11.732706	52117.429688	50823.890625
577.600830	-76.305130	51423.792969	50647.500000
578.026306	-39.043137	51606.281250	50784.234375
578.451721	-9.250599	51527.441406	51162.171875
578.877136	-73.820213	51950.039063	51183.871094
579.302429	-126.025009	52088.371094	50937.121094
579.727661	-26.627680	52743.140625	51417.636719
580.152832	-73.820213	52224.304688	51106.476563
580.578064	-58.913223	52240.542969	52078.808594
581.003113	-26.627680	52318.644531	51330.085938
581.428223	-46.493622	52263.289063	51193.179688
581.853271	-48.977303	52613.960938	51669.664063
582.278198	-26.627680	52423.207031	51013.945313
582.703125	-71.335472	52670.179688	51137.406250
583.127930	-6.768529	53007.109375	51020.105469
583.552795	-16.697300	52776.386719	51815.847656
583.977539	-19.179722	52564.468750	51480.386719
584.402283	-1.804771	52749.785156	51174.566406
584.826965	3.158570	52561.179688	51314.484375
585.251587	-14.214917	52361.062500	51660.160156
585.676208	-108.618172	52683.425781	50983.183594
586.100647	-39.043137	52531.539063	51283.324219
586.525208	-48.977303	52518.382813	51882.902344
586.949524	-66.366241	52325.164063	51323.847656
587.373962	-66.366241	52416.652344	51112.656250
587.798218	-36.559811	52348.003906	51433.308594
588.222534	5.640050	52256.789063	51242.863281
588.646729	-39.043137	52243.789063	51298.894531
589.070984	-53.945049	52344.738281	51408.242188
589.495117	-101.159721	52315.382813	50759.871094
589.919128	-1.804771	52574.363281	51364.441406
590.343201	-81.275208	51777.507813	50857.492188
590.767151	-11.732706	52043.238281	51001.632813
591.191101	-6.768529	52221.058594	51121.933594
591.614990	-66.366241	51895.578125	50532.660156
592.038818	-73.820213	51587.335938	50753.777344
592.462524	42.850189	51905.179688	50469.433594
592.886292	-61.397434	51844.445313	50253.972656
593.310059	-24.144945	51221.003906	50466.433594
593.733582	-24.144945	51675.882813	49931.496094
594.157227	-36.559811	51367.453125	50031.609375
594.580750	-41.526505	51311.253906	50349.484375
595.004272	-56.429050	51669.546875	49645.273438
595.427673	32.929806	51305.019531	49820.101563
595.851074	-14.214917	51146.578125	49376.785156
596.274353	-31.593534	51115.636719	49852.292969
596.697632	-4.286632	50617.117188	49966.781250
597.120911	-53.945049	50571.777344	49253.648438
597.544067	8.121427	49925.511719	49091.367188
597.967224	-29.110588	50538.578125	49219.390625
598.390320	-58.913223	49790.769531	48772.808594
598.813354	5.640050	50016.757813	48868.226563
599.236328	8.121427	50325.460938	48784.011719
599.659241	-44.009975	49834.625000	48786.812500
600.082153	-34.076653	49881.492188	48702.875000
600.505005	-21.662315	49128.183594	48259.867188
600.927795	-83.760376	49439.921875	47425.214844
601.350525	-76.305130	49685.843750	48580.273438
601.773254	-83.760376	48887.816406	47789.324219
602.195862	-19.179722	49048.742188	47435.855469
602.618408	-68.850838	48672.070313	47628.074219
603.040955	-58.913223	48524.640625	47356.160156
603.463440	-51.461159	48052.011719	46726.722656
603.885925	-4.286632	48441.570313	46861.914063
604.308350	-78.790085	48046.562500	46807.238281
604.730652	-31.593534	47534.367188	46919.304688
605.152893	-91.216583	47473.031250	45641.660156
605.575195	-34.076653	47756.898438	46184.464844
605.997375	-26.627680	47244.886719	46294.175781
606.419495	-44.009975	46674.796875	45981.394531
606.841553	-11.732706	46900.941406	45549.171875
607.263672	-96.187935	47147.312500	44935.726563
607.685608	-21.662315	46566.257813	45534.199219
608.107605	-53.945049	46130.941406	45095.453125
608.529480	-121.051079	46133.484375	45243.546875
608.951294	-58.913223	45579.050781	44823.113281
609.373108	-106.131935	46082.675781	44426.839844
609.794800	-73.820213	45634.062500	44477.660156
610.216553	-16.697300	44994.527344	43691.164063
610.638123	-53.945049	45058.437500	44154.503906
611.059753	-14.214917	45285.535156	43824.390625
611.481262	-71.335472	44891.527344	43669.789063
611.902832	-61.397434	44245.792969	43188.011719
612.324219	13.083934	44562.421875	43641.304688
612.745605	-29.110588	44015.355469	43056.613281
613.166931	-41.526505	43993.820313	42764.554688
613.588196	-103.645737	43781.433594	42743.589844
614.009460	-39.043137	43881.531250	42372.218750
614.430664	-9.250599	43740.992188	42162.074219
614.851807	-73.820213	43752.882813	42522.785156
615.272827	-53.945049	43404.574219	42344.464844
615.693909	-41.526505	42909.125000	41727.886719
616.114929	-41.526505	42369.820313	41886.062500
616.535889	-31.593534	42955.875000	41599.781250
616.956787	-61.397434	42300.464844	41089.589844
617.377563	15.565064	42256.582031	41173.628906
617.798340	-16.697300	42067.550781	40713.574219
618.219055	-24.144945	42150.468750	41014.703125
618.639832	-14.214917	41353.281250	40285.050781
619.060364	-58.913223	41291.808594	39974.890625
619.481018	-56.429050	41060.000000	39768.570313
619.901611	-26.627680	40675.070313	40013.058594
620.322083	-53.945049	40537.343750	39229.574219
620.742493	32.929806	40248.960938	39019.847656
621.162842	-78.790085	39716.964844	38703.464844
621.583191	-34.076653	39654.261719	38420.906250
622.003418	-63.881821	39113.441406	37841.152344
622.423706	-6.768529	38852.601563	37967.671875
622.843872	-101.159721	38465.300781	37335.453125
623.264038	-34.076653	38127.476563	36670.722656
623.684143	-58.913223	37705.714844	36267.636719
624.104126	-36.559811	37339.808594	35966.460938
624.524170	-16.697300	37038.394531	35807.019531
624.944031	35.410042	36376.074219	35605.484375
625.364014	-9.250599	36431.441406	35045.066406
625.783752	-73.820213	35937.597656	34677.234375
626.203552	-6.768529	34843.359375	34311.484375
626.623230	-44.009975	34927.558594	33843.542969
627.042969	-121.051079	34502.054688	33350.921875
627.462585	-41.526505	33583.878906	33088.953125
627.882141	-51.461159	33639.351563	32975.703125
628.301697	35.410042	33313.105469	32273.654297
628.721130	-41.526505	32795.722656	31624.449219
629.140625	-96.187935	32524.689453	31175.119141
629.559998	-41.526505	31980.150391	31099.476563
629.979309	0.676918	31782.259766	30703.402344
630.398560	-88.731094	31157.240234	30374.021484
630.817810	-51.461159	30952.544922	29857.646484
631.237000	-6.768529	30736.699219	29877.677734
631.656067	-140.949341	30215.916016	29450.324219
632.075195	-63.881821	29973.306641	28577.990234
632.494202	-91.216583	29548.177734	28569.089844
632.913208	-81.275208	29278.867188	28208.724609
633.332092	-48.977303	28922.792969	27583.947266
633.750977	-71.335472	28444.425781	27461.714844
634.169739	-48.977303	28417.732422	27223.970703
634.588562	-81.275208	28104.113281	27037.388672
635.007263	-31.593534	27897.314453	26693.240234
635.425964	-31.593534	26944.035156	26364.822266
635.844543	-101.159721	26866.318359	26054.335938
636.263123	-48.977303	26815.253906	25748.474609
636.681641	-63.881821	26424.640625	25972.310547
637.100037	30.449402	26411.328125	25529.164063
637.518494	47.809795	26103.035156	25188.222656
637.936829	-93.702240	25606.605469	24770.152344
638.355164	-53.945049	25179.292969	24233.224609
638.773438	-46.493622	25002.285156	24396.660156
639.191650	-4.286632	24392.162109	23809.472656
639.609863	-123.538017	24330.314453	24149.322266
640.027893	-58.913223	24182.359375	23469.900391
640.445984	-66.366241	23974.867188	23207.697266
640.863953	-31.593534	23430.148438	22769.589844
641.281921	-128.512161	23421.332031	22895.033203
641.699829	-88.731094	23421.332031	22118.769531
642.117676	-118.564308	23119.517578	22479.238281
642.535461	-98.673805	22584.716797	22118.769531
642.953247	-19.179722	22714.503906	21912.292969
643.370972	-26.627680	22417.593750	21912.292969
643.788635	-71.335472	22013.240234	21534.716797
644.206177	-41.526505	21611.445313	21078.505859
644.623718	-68.850838	21657.535156	20773.851563
645.041260	-123.538017	21240.685547	20876.845703
645.458618	-14.214917	20846.083984	20116.851563
645.876099	32.929806	20675.177734	20116.851563
646.293396	-16.697300	20545.935547	19968.019531
646.710693	-36.559811	20403.578125	19672.625000
647.127991	-31.593534	20114.582031	19460.437500
647.545166	139.488358	20086.125000	19687.937500
647.962341	-78.790085	19801.630859	19292.031250
648.379333	-81.275208	19331.316406	18629.531250
648.796448	-29.110588	19405.675781	18786.935547
649.213379	-41.526505	18804.345703	18277.580078
649.630310	-121.051079	18740.945313	18301.626953
650.047180	-73.820213	18544.193359	18028.376953
650.463989	-68.850838	18458.937500	17910.332031
650.880859	-36.559811	18225.037109	17805.396484
651.297546	15.565064	18133.224609	17335.312500
651.714233	-16.697300	17610.740234	17068.496094
652.130859	-44.009975	17560.451172	17350.621094
652.547485	-81.275208	17483.925781	16860.677734
652.963928	-11.732706	17214.955078	16584.960938
653.380432	-71.335472	16943.730469	16379.192383
653.796814	-71.335472	16759.951172	16184.301758
654.213196	-16.697300	16619.896484	15978.385742
654.629578	-26.627680	16243.354492	15947.709961
655.045837	-51.461159	16346.270508	15969.622070
655.462036	-121.051079	15903.804688	15463.187500
655.878174	-88.731094	15941.057617	15664.957031
656.294312	-26.627680	15739.418945	15186.678711
656.710327	-91.216583	15585.936523	14707.744141
657.126404	-41.526505	15239.283203	14731.927734
657.542358	0.676918	15357.794922	14925.330078
657.958252	-96.187935	14938.431641	14366.760742
658.374084	-29.110588	14984.565430	14289.707031
658.789917	-36.559811	14753.831055	14073.837891
659.205688	0.676918	14318.249023	14012.128906
659.621338	-31.593534	14276.415039	13727.624023
660.037048	18.046024	14067.147461	13747.484375
660.452637	-68.850838	13782.706055	13634.922852
660.868164	-19.179722	13793.737305	13599.596680
661.283691	-31.593534	13559.770508	13431.730469
661.699158	-26.627680	13347.669922	12982.718750
662.114502	-34.076653	13031.344727	12927.354492
662.529846	-34.076653	13020.276367	12554.916016
662.945129	-58.913223	13013.634766	12543.821289
663.360413	-4.286632	12501.572266	12501.652344
663.775635	-121.051079	12614.739258	12332.886719
664.190674	-44.009975	12363.905273	12086.124023
664.605835	-16.697300	12370.569336	11749.891602
665.020813	-26.627680	12317.253906	12068.326172
665.435791	-103.645737	12032.645508	11801.147461
665.850769	-76.305130	11740.895508	11417.470703
666.265625	-73.820213	11497.766602	11200.708984
666.680420	-98.673805	11515.623047	11330.353516
667.095215	13.083934	11428.556641	10990.373047
667.509949	-44.009975	11064.165039	10914.227539
667.924622	-36.559811	11133.528320	10568.866211
668.339233	-108.618172	10896.224609	10519.466797
668.753784	-51.461159	10741.560547	10492.513672
669.168335	-71.335472	10535.103516	10281.222656
669.582825	-86.245720	10384.575195	10170.964844
669.997192	-44.009975	10182.137695	9891.576172
670.411560	-26.627680	10044.772461	9787.796875
670.825867	-36.559811	10355.350586	9659.097656
671.240173	-56.429050	9588.973633	9672.650391
671.654358	0.676918	9568.631836	9421.719727
672.068481	-86.245720	9444.261719	9356.086914
672.482605	-16.697300	9588.973633	9202.073242
672.896667	-128.512161	9374.113281	9009.317383
673.310669	3.158570	9165.727539	8784.474609
673.724609	0.676918	9013.772461	8761.742188
674.138489	-73.820213	8909.349609	8727.637695
674.552307	18.046024	8657.044922	8408.915039
674.966064	-71.335472	8725.281250	8294.904297
675.379822	8.121427	8684.343750	8235.580078
675.793579	-44.009975	8495.416992	8048.308594
676.207153	-29.110588	8297.102539	8048.308594
676.620789	-41.526505	8267.443359	8050.593262
677.034241	-53.945049	7936.191895	7828.726074
677.447754	-78.790085	7968.210449	7805.832031
677.861206	-26.627680	7746.205566	7496.370605
678.274597	-4.286632	7718.714844	7390.756348
678.687866	-56.429050	7730.169922	7413.723633
679.101135	-103.645737	7464.152344	7331.022461
679.514404	37.890171	7425.121094	7234.472656
679.927551	-91.216583	7238.987793	6983.562500
680.340698	-73.820213	7119.353516	6969.736328
680.753723	-53.945049	7071.007813	7082.604004
681.166748	-34.076653	7075.612793	6815.245117
681.579712	-83.760376	6826.696777	6764.475098
681.992615	5.640050	6748.233398	6605.111328
682.405457	10.602766	6796.701660	6709.067383
682.818298	-88.731094	6692.817871	6350.632813
683.231018	-53.945049	6810.545898	6262.601563
683.643738	-46.493622	6438.518066	6230.152832
684.056335	-66.366241	6234.704102	6042.247070
684.468994	-61.397434	6188.335938	5937.730957
684.881531	-76.305130	6063.055176	6130.436035
685.293945	-58.913223	6021.266602	5895.899414
685.706482	-26.627680	5998.043945	5793.583496
686.118774	-29.110588	5921.379883	5791.257324
686.531128	-73.820213	6025.910645	5605.003906
686.943481	-26.627680	5698.081543	5593.353516
687.355713	42.850189	5530.336914	5453.459473
687.767883	-36.559811	5593.268555	5385.785645
688.179932	-36.559811	5532.667969	5353.101563
688.592041	50.289406	5381.031738	5133.416504
689.004089	-41.526505	5392.703125	5278.361328
689.416016	18.046024	5390.369141	5198.897461
689.827881	-39.043137	5095.897461	4929.723145
690.239868	-39.043137	5194.136719	4854.711426
690.651611	-83.760376	4978.838379	4746.795898
691.063354	-56.429050	5004.601074	4908.630859
691.475098	-96.187935	4845.245605	4662.269043
691.886719	-48.977303	4880.416992	4791.381836
692.298340	-4.286632	4817.101563	4575.328613
692.709900	-66.366241	4793.642578	4699.844238
693.121460	-83.760376	4695.062500	4453.028320
693.532837	-66.366241	4594.046875	4283.468262
693.944214	-63.881821	4485.882813	4375.345215
694.355652	-1.804771	4457.648926	4250.468262
694.766846	-86.245720	4203.222168	4243.395020
695.178101	-31.593534	4101.757813	4137.248535
695.589294	10.602766	4068.702637	4233.964355
696.000366	-78.790085	4125.362793	4113.646973
696.411438	-39.043137	4174.916016	3936.466797
696.822510	-16.697300	4089.953613	4005.010742
697.233459	-118.564308	3976.567383	3865.512695
697.644409	-128.512161	3889.083496	3668.958740
698.055298	-88.731094	3912.734619	3676.069580
698.466064	3.158570	3803.895264	3721.093262
698.876831	-19.179722	3683.093750	3668.958740
699.287537	-6.768529	3645.166504	3685.549805
699.698181	-34.076653	3607.225586	3524.267334
700.108826	-66.366241	3626.197754	3633.397461
700.519348	-66.366241	3543.168701	3507.650391
700.929810	-63.881821	3455.322021	3405.515869
701.340271	-1.804771	3395.923584	3441.156006
701.750732	-34.076653	3331.733887	3300.899902
702.161011	8.121427	3312.707031	3262.830566
702.571350	-53.945049	3384.039795	3305.657227
702.981567	5.640050	3291.297363	3284.246338
703.391724	-36.559811	3198.469238	3067.496582
703.801880	5.640050	3003.007324	3062.727539
704.211914	-91.216583	3060.256348	2976.843994
704.621948	-44.009975	3079.331543	2838.314941
705.031921	-11.732706	3091.251953	2876.550049
705.441895	-16.697300	2974.370605	2864.603027
705.851746	-126.025009	3022.094238	2855.044678
706.261536	-46.493622	2981.530518	2745.052979
706.671265	-39.043137	2737.788086	2651.697754
707.081055	-29.110588	2780.847168	2704.371094
707.490662	23.007700	2850.178223	2776.150391
707.900330	-21.662315	2740.180908	2644.512939
708.309814	-1.804771	2663.584961	2563.043701
708.719299	-21.662315	2692.315674	2654.092773
709.128784	-26.627680	2550.969727	2443.104004
709.538147	-48.977303	2594.115234	2476.703125
709.947510	-6.768529	2510.202637	2443.104004
710.356750	-66.366241	2522.194580	2366.258789
710.766052	20.526880	2498.208740	2455.104980
711.175171	8.121427	2303.686279	2229.213867
711.584290	-83.760376	2334.934326	2248.461182
711.993347	-36.559811	2368.573975	2221.995117
712.402405	-31.593534	2185.804932	2342.231201
712.811401	8.121427	2245.968262	2156.999023
713.220276	-81.275208	2154.503418	2166.631348
713.629150	-101.159721	2207.468262	2205.148926
714.037964	-53.945049	2159.319580	2104.003174
714.446777	-46.493622	2062.941895	2070.261719
714.855408	-46.493622	2043.653198	2104.003174
715.264099	-113.591026	2084.636230	2075.082520
715.672668	-6.768529	1992.999756	1971.369751
716.081177	-4.286632	1990.587158	2029.271606
716.489746	-56.429050	2009.887573	2043.740723
716.898132	-113.591026	1896.432861	1961.715454
717.306519	-53.945049	1906.094849	1797.423218
717.714844	-111.104576	1927.829346	1782.911011
718.123108	-29.110588	1809.426636	1785.329956
718.531372	-61.397434	1881.938232	1802.260010
718.939514	-44.009975	1889.186035	1804.678345
719.347595	-101.159721	1879.522095	1678.831787
719.755676	25.488348	1807.008789	1703.048340
720.163696	-46.493622	1790.079590	1623.106201
720.571716	-44.009975	1722.328369	1751.459473
720.979614	-130.999359	1741.691406	1596.441162
721.387451	-58.913223	1627.865479	1569.767212
721.795227	65.165131	1736.851196	1506.683594
722.202942	-135.974152	1576.954590	1496.973755
722.610718	-41.526505	1564.828247	1472.694336
723.018311	-39.043137	1535.717163	1504.256226
723.425903	-73.820213	1581.804688	1382.793579
723.833374	-71.335472	1484.746704	1363.341797
724.240906	-66.366241	1428.883545	1353.614136
724.648376	-51.461159	1453.176880	1343.884888
725.055725	30.449402	1351.093628	1353.614136
725.463013	20.526880	1424.023926	1380.362305
725.870300	3.158570	1399.721680	1253.832275
726.277466	-16.697300	1363.253418	1329.289185
726.684631	-103.645737	1309.735107	1261.137695
727.091797	-51.461159	1275.658325	1251.396973
727.498779	-66.366241	1270.788818	1263.572876
727.905823	8.121427	1319.468750	1244.090210
728.312805	-56.429050	1268.354248	1343.884888
728.719666	-19.179722	1270.788818	1173.423584
729.126526	50.289406	1195.273071	1119.768799
729.533264	-24.144945	1236.694702	1090.486206
729.940063	-73.820213	1166.020508	1188.049805
730.346680	-1.804771	1224.514160	1122.208496
730.753357	37.890171	1156.266968	1078.281494
731.159851	-11.732706	1129.438477	1070.957764
731.566406	-16.697300	1119.680054	1131.966553
731.972900	-101.159721	1107.480347	1070.957764
732.379272	-26.627680	1092.838013	1092.926758
732.785645	-36.559811	1053.777222	1083.163696
733.191895	-1.804771	914.450256	985.458801
733.598206	-39.043137	1056.219238	1029.442383
734.004333	-41.526505	1022.024841	968.346802
734.410522	37.890171	1031.796265	1002.566711
734.816528	-53.945049	1053.777222	953.676086
735.222656	-78.790085	958.477783	951.230652
735.628662	18.046024	926.682800	926.771851
736.034546	-63.881821	968.257996	980.570129
736.440430	13.083934	1048.893188	916.985840
736.846252	-11.732706	1012.251953	921.879089
737.252014	-24.144945	877.739624	941.448120
737.657715	-41.526505	909.556641	850.895386
738.063354	5.640050	1007.365173	963.456909
738.468933	-96.187935	990.258362	833.750488
738.874512	-36.559811	958.477783	875.380615
739.280029	-19.179722	870.395203	777.387695
739.685486	18.046024	880.187622	804.349609
740.090881	-46.493622	919.343506	916.985840
740.496216	-53.945049	845.908203	855.793152
740.901550	-24.144945	870.395203	980.570129
741.306702	-4.286632	919.343506	823.951599
741.711914	-19.179722	838.560425	811.700989
742.117004	-48.977303	887.531006	779.839233
742.522095	23.007700	845.908203	850.895386
742.927124	-44.009975	769.943359	816.601501
743.332031	-21.662315	735.609070	821.501709
743.737000	-101.159721	784.652771	777.387695
744.141785	-41.526505	747.873413	684.164551
744.546631	-39.043137	765.039551	681.709534
744.951355	-46.493622	772.395203	703.801147
745.356079	-34.076653	765.039551	696.438171
745.760620	-103.645737	765.039551	622.763306
746.165283	-51.461159	652.153625	684.164551
746.569824	-88.731094	730.702881	649.786804
746.974243	-36.559811	652.153625	635.048096
747.378723	35.410042	686.530151	691.528870
747.783020	-29.110588	622.674072	620.306213
748.187378	-6.768529	659.521484	654.699097
748.591614	-73.820213	531.695923	630.134460
748.995850	-58.913223	588.264648	666.977905
749.399963	-4.286632	639.872070	630.134460
749.804077	-16.697300	615.302002	603.103088
750.208130	-1.804771	534.156494	553.926697
750.612122	-51.461159	482.466125	595.729004
751.016052	-56.429050	514.469727	536.706360
751.419922	-133.486664	509.547150	632.591309
751.823792	-31.593534	551.377563	519.481567
752.227478	-6.768529	435.663269	556.386414
752.631226	-48.977303	519.392029	536.706360
753.034851	-26.627680	507.085693	435.752808
753.438477	-71.335472	516.930908	485.018158
753.842102	-16.697300	472.615662	401.244751
754.245544	10.602766	507.085693	558.846069
754.648987	-9.250599	447.983032	448.072693
755.052368	-111.104576	447.983032	440.681091
755.455750	-36.559811	440.591431	406.175598
755.859009	-39.043137	492.315094	401.244751
756.262268	-91.216583	484.928528	379.051086
756.665405	-34.076653	467.689972	457.926880
757.068542	-73.820213	440.591431	430.824249
757.471680	-29.110588	411.016418	351.915070
757.874634	-61.397434	418.411499	376.584686
758.277588	-24.144945	322.208954	319.830078
758.680420	-36.559811	413.481537	406.175598
759.083374	-76.305130	369.095062	359.316925
759.486084	-86.245720	381.427734	285.258789
759.888916	-71.335472	344.422516	374.118103
760.291504	-63.881821	364.161285	349.447540
760.694214	-61.397434	401.155090	369.184814
761.096802	-16.697300	381.427734	221.004013
761.499268	-71.335472	356.759979	287.728821
761.901733	-24.144945	334.550781	388.915894
762.304199	-14.214917	322.208954	339.576630
762.706543	-91.216583	317.271545	388.915894
763.108826	-76.305130	292.578705	267.965942
763.511108	-9.250599	287.638947	319.830078
763.913208	-48.977303	186.287613	317.361389
764.315369	-29.110588	267.876099	332.172363
764.717529	5.640050	304.926361	322.298798
765.119568	-76.305130	329.614319	307.485413
765.521545	0.676918	349.357819	292.668579
765.923462	-44.009975	260.463440	295.138275
766.325317	-41.526505	285.168976	307.485413
766.727112	-78.790085	248.106995	225.949051
767.128845	25.488348	322.208954	186.377640
767.530518	-19.179722	277.758331	265.495178
767.932251	-81.275208	349.357819	223.476608
768.333862	3.158570	230.803818	285.258789
768.735413	-73.820213	243.163727	295.138275
769.136841	-21.662315	191.235474	221.004013
769.538269	27.968960	233.275970	267.965942
769.939636	-103.645737	208.549744	277.848175
770.341003	-101.159721	230.803818	238.309906
770.742249	-36.559811	262.934418	327.235748
771.143433	-16.697300	253.049820	193.799210
771.544617	-63.881821	240.691895	265.495178
771.945740	-36.559811	346.890167	221.004013
772.346802	3.158570	161.542465	270.436707
772.747803	-48.977303	198.656448	178.955109
773.148682	-76.305130	181.339371	233.365921
773.549622	-39.043137	211.022781	253.139740
773.950439	15.565064	213.495789	156.682281
774.351196	-11.732706	245.635376	136.877274
774.751892	82.515434	257.992310	245.725311
775.152588	-9.250599	151.641571	188.851578
775.553162	23.007700	186.287613	188.851578
775.953735	50.289406	228.331497	213.585709
776.354309	-48.977303	215.968643	206.166534
776.754639	-78.790085	173.916290	235.837967
777.155090	-66.366241	171.441757	144.304947
777.555420	-88.731094	285.168976	156.682281
777.955750	-36.559811	139.263199	183.903549
778.355896	-96.187935	139.263199	119.542641
778.756104	10.602766	146.690506	139.353287
779.156189	-101.159721	139.263199	119.542641
779.556274	-16.697300	201.129959	119.542641
779.956299	-26.627680	196.182922	114.589035
780.356201	-41.526505	116.975761	117.065887
780.756165	13.083934	129.358734	164.107452
781.156006	-66.366241	124.405861	174.006332
781.555786	-53.945049	201.129959	126.972427
781.955505	-108.618172	104.590317	82.380234
782.355225	-11.732706	104.590317	129.448776
782.754761	-56.429050	124.405861	159.157425
783.154358	-96.187935	161.542465	183.903549
783.553894	-91.216583	141.739120	126.972427
783.953369	-68.850838	116.975761	74.945007
784.352783	-34.076653	79.811768	65.029892
784.752075	-19.179722	176.390732	208.639679
785.151367	0.676918	55.022987	144.304947
785.550598	-41.526505	104.590317	151.731628
785.949768	8.121427	109.544807	131.925034
786.348877	-19.179722	129.358734	37.754940
786.747986	-44.009975	131.834991	62.550892
787.147034	-53.945049	119.452583	169.057098
787.545959	-34.076653	22.782169	25.353022
787.944885	-31.593534	151.641571	149.256134
788.343750	-53.945049	64.939758	156.682281
788.742493	-53.945049	139.263199	114.589035
789.141235	-58.913223	97.157829	124.495911
789.539917	-71.335472	69.897461	35.274738
789.938538	-103.645737	15.339438	17.910681
790.337158	-76.305130	74.854820	134.401230
790.735718	-21.662315	99.635475	77.423500
791.134094	-46.493622	84.768311	45.194794
791.532532	-36.559811	114.498901	84.858414
791.930847	-41.526505	69.897461	42.714901
792.329224	-68.850838	89.724442	52.633720
792.727417	-6.768529	22.782169	35.274738
793.125610	-24.144945	10.377120	104.680450
793.523682	-31.593534	139.263199	134.401230
793.921753	-76.305130	107.067642	74.945007
794.319824	-26.627680	74.854820	79.901947
794.717773	18.046024	102.112946	99.725555
795.115723	-11.732706	45.104565	62.550892
795.513550	-1.804771	126.882324	82.380234
795.911377	-44.009975	92.202316	67.508858
796.309082	-19.179722	129.358734	107.157715
796.706787	-26.627680	27.743382	47.674519
797.104370	-56.429050	82.290123	55.113132
797.501953	0.676918	20.301340	176.480774
797.899536	-51.461159	37.664696	40.234974
798.296936	-14.214917	5.414454	0.541535
798.694397	-36.559811	55.022987	22.872368
799.091736	-26.627680	57.502296	57.592514
799.489014	-36.559811	42.624733	-49.112797
799.886230	-56.429050	89.724442	-46.629112
800.283447	8.121427	25.262827	119.542641
800.680542	27.968960	45.104565	72.466347
801.077637	-31.593534	2.932896	45.194794
801.474670	-26.627680	40.144733	84.858414
801.871643	-101.159721	59.981579	5.504679
802.268555	-68.850838	15.339438	-9.385937
802.665405	-63.881821	112.021942	104.680450
803.062256	40.370266	-66.592117	102.203026
803.458923	-48.977303	-16.922983	69.987656
803.855652	-73.820213	-2.030464	55.113132
804.252258	-36.559811	114.498901	62.550892
804.648804	-11.732706	2.932896	7.986128
805.045410	45.330078	99.635475	79.901947
805.441833	-29.110588	94.680161	82.380234
805.838257	-1.804771	42.624733	37.754940
806.234619	3.158570	20.301340	74.945007
806.630859	0.676918	64.939758	42.714901
807.027100	-145.924973	52.543568	40.234974
807.423279	-68.850838	-64.107681	37.754940
807.819458	-56.429050	22.782169	30.314087
808.215515	-29.110588	45.104565	-21.797682
808.611572	42.850189	94.680161	87.336555
809.007507	20.526880	25.262827	92.292473
809.403381	-78.790085	40.144733	-1.940159
809.799194	-76.305130	7.895839	-1.940159
810.195068	35.410042	62.460686	5.504679
810.590759	-51.461159	52.543568	37.754940
810.986450	-16.697300	-14.440658	-56.564564
811.382080	30.449402	-46.719418	17.910681
811.777649	-16.697300	97.157829	72.466347
812.173157	15.565064	20.301340	30.314087
812.568665	45.330078	35.184555	42.714901
812.964050	8.121427	-16.922983	50.154205
813.359375	3.158570	59.981579	10.467405
813.754639	0.676918	17.820475	30.314087
814.149841	-6.768529	-9.476254	-29.246040
814.545105	-111.104576	37.664696	-41.661983
814.940186	-14.214917	-46.719418	-54.080563
815.335266	47.809795	77.333382	92.292473
815.730347	-11.732706	37.664696	42.714901
816.125244	-66.366241	20.301340	79.901947
816.520203	-29.110588	2.932896	37.754940
816.914978	-31.593534	-21.888016	-51.596596
817.309753	-6.768529	32.704247	-49.112797
817.704468	-44.009975	27.743382	22.872368
818.099182	99.860718	55.022987	55.113132
818.493774	-63.881821	57.502296	17.910681
818.888367	18.046024	79.811768	57.592514
819.282898	42.850189	2.932896	67.508858
819.677307	-1.804771	12.858365	109.634949
820.071716	-34.076653	52.543568	20.391611
820.466003	50.289406	-31.819342	97.247986
820.860291	3.158570	82.290123	22.872368
821.254517	-4.286632	10.377120	22.872368
821.648743	8.121427	22.782169	0.541535
822.042786	30.449402	-16.922983	35.274738
822.436890	13.083934	89.724442	12.948579
822.830872	25.488348	-54.170879	45.194794
823.224792	-1.804771	47.584358	62.550892
823.618774	-21.662315	-59.139072	74.945007
824.012512	-46.493622	27.743382	-11.868117
824.406311	-34.076653	62.460686	15.429716
824.799988	-11.732706	45.104565	17.910681
825.193665	-88.731094	45.104565	10.467405
825.587280	5.640050	-11.958369	7.986128
825.980835	-6.768529	10.377120	-61.532963
826.374329	-34.076653	-69.076721	-6.903929
826.767761	-83.760376	0.451302	82.380234
827.161194	15.565064	-9.476254	-64.017349
827.554443	3.158570	12.858365	65.029892
827.947754	-48.977303	0.451302	-41.661983
828.340942	57.727764	-2.030464	-21.797682
828.734131	-53.945049	52.543568	-9.385937
829.127136	-31.593534	-21.888016	-59.048744
829.520264	-51.461159	-21.888016	5.504679
829.913208	8.121427	-16.922983	7.986128
830.306152	-46.493622	25.262827	-31.728992
830.699097	-34.076653	-4.512267	-11.868117
831.091797	-34.076653	25.262827	-101.295349
831.484619	-31.593534	-4.512267	-11.868117
831.877319	20.526880	-4.512267	-6.903929
832.270020	-108.618172	-83.986313	12.948579
832.662537	-93.702240	-16.922983	-68.986313
833.055054	-56.429050	-16.922983	62.550892
833.447510	65.165131	-26.853468	12.948579
833.839966	-51.461159	-26.853468	-44.145458
834.232361	-61.397434	-26.853468	-68.986313
834.624634	-73.820213	-81.501144	-41.661983
835.016907	-21.662315	35.184555	17.910681
835.409058	-39.043137	37.664696	-31.728992
835.801208	-93.702240	-76.531044	7.986128
836.193298	-46.493622	-81.501144	-9.385937
836.585327	-66.366241	-36.785568	3.023193
836.977295	-71.335472	-19.405481	60.071720
837.369202	-91.216583	2.932896	109.634949
837.761047	-41.526505	-51.686974	69.987656
838.152832	15.565064	-24.370657	-49.112797
838.544617	-41.526505	35.184555	5.504679
838.936218	-4.286632	10.377120	-6.903929
839.327942	-83.760376	-6.994174	-91.352173
839.719421	-76.305130	35.184555	15.429716
840.111023	-78.790085	7.895839	-41.661983
840.502380	-36.559811	-4.512267	-73.955772
840.893860	-66.366241	-26.853468	-51.596596
841.285217	15.565064	10.377120	-59.048744
841.676453	5.640050	72.376228	72.466347
842.067749	47.809795	7.895839	-56.564564
842.458862	-14.214917	0.451302	7.986128
842.849976	55.248394	64.939758	7.986128
843.241028	-11.732706	-64.107681	40.234974
843.632019	-19.179722	-4.512267	-51.596596
844.022949	-48.977303	-14.440658	15.429716
844.413879	-56.429050	-46.719418	-91.352173
844.804749	-31.593534	-54.170879	-16.832724
845.195496	-63.881821	5.414454	-51.596596
845.586182	-86.245720	-49.203175	-14.350334
845.976807	-39.043137	-101.385735	30.314087
846.367432	13.083934	17.820475	-24.280384
846.757996	-26.627680	-6.994174	-44.145458
847.148499	-63.881821	12.858365	-34.212116
847.538879	-26.627680	-26.853468	-14.350334
847.929260	-4.286632	-66.592117	10.467405
848.319641	-44.009975	5.414454	-44.145458
848.709839	-16.697300	-36.785568	-71.471024
849.100098	-21.662315	17.820475	32.794498
849.490234	-81.275208	-11.958369	-31.728992
849.880310	-73.820213	-44.235828	-44.145458
850.270325	47.809795	-44.235828	-9.385937
850.660339	-14.214917	-36.785568	-96.323547
851.050171	-9.250599	-41.752281	-39.178543
851.440125	-31.593534	-34.302402	5.504679
851.829895	10.602766	7.895839	-83.895958
852.219604	0.676918	-24.370657	5.504679
852.609314	-6.768529	-56.654953	25.353022
852.998901	-113.591026	-16.922983	-111.240227
853.388550	-83.760376	-54.170879	-26.763126
853.778015	32.929806	10.377120	-4.422026
854.167480	-48.977303	-86.471664	17.910681
854.556885	25.488348	-4.512267	47.674519
854.946228	-31.593534	-11.958369	-71.471024
855.335571	-1.804771	52.543568	-6.903929
855.724731	-58.913223	5.414454	-51.596596
856.113953	-39.043137	-54.170879	45.194794
856.503052	-9.250599	-76.531044	45.194794
856.892151	-41.526505	-51.686974	-49.112797
857.281067	-71.335472	-39.268906	-49.112797
857.670105	-61.397434	-79.016075	27.833641
858.058960	-9.250599	-79.016075	-59.048744
858.447754	-101.159721	-46.719418	17.910681
858.836609	13.083934	-26.853468	-9.385937
859.225281	-44.009975	10.377120	5.504679
859.613892	-11.732706	20.301340	-16.832724
860.002502	-21.662315	-9.476254	-88.866684
860.391052	-66.366241	-39.268906	-86.381233
860.779541	-48.977303	27.743382	-98.809357
861.167969	-39.043137	-26.853468	-51.596596
861.556335	3.158570	-4.512267	35.274738
861.944702	-29.110588	-39.268906	-49.112797
862.332947	-58.913223	69.897461	-24.280384
862.721069	-26.627680	-39.268906	42.714901
863.109253	-41.526505	-9.476254	-46.629112
863.497314	20.526880	17.820475	-76.440689
863.885376	-29.110588	-31.819342	57.592514
864.273315	-11.732706	-24.370657	-6.903929
864.661255	-39.043137	-46.719418	-78.925644
865.049072	-81.275208	-86.471664	-14.350334
865.436890	-73.820213	2.932896	-11.868117
865.824707	-6.768529	-46.719418	-98.809357
866.212280	-26.627680	12.858365	-39.178543
866.599915	20.526880	-46.719418	-54.080563
866.987488	-11.732706	5.414454	-16.832724
867.375061	-68.850838	-36.785568	-59.048744
867.762451	-66.366241	-41.752281	-78.925644
868.149841	-111.104576	-41.752281	-21.797682
868.537170	20.526880	-16.922983	17.910681
868.924438	-68.850838	-103.871834	-56.564564
869.311707	-44.009975	-51.686974	-46.629112
869.698853	-44.009975	20.301340	-106.267570
870.085938	-116.077644	-16.922983	-9.385937
870.472961	-11.732706	-86.471664	102.203026
870.859985	-58.913223	-9.476254	72.466347
871.246887	-9.250599	30.223900	-29.246040
871.633789	-19.179722	-61.623356	-21.797682
872.020569	-44.009975	-9.476254	3.023193
872.407349	23.007700	5.414454	25.353022
872.794067	-51.461159	-44.235828	52.633720
873.180725	8.121427	-34.302402	-68.986313
873.567322	-26.627680	37.664696	20.391611
873.953796	-86.245720	5.414454	15.429716
874.340332	-16.697300	37.664696	0.541535
874.726624	-71.335472	25.262827	5.504679
875.113037	-9.250599	-9.476254	-6.903929
875.499329	-83.760376	-56.654953	-66.501778
875.885559	-34.076653	-54.170879	-11.868117
876.271729	-88.731094	-49.203175	-64.017349
876.657898	-88.731094	-71.561363	-26.763126
877.044006	-88.731094	-29.336319	-56.564564
877.429932	-73.820213	-34.302402	-21.797682
877.815918	-46.493622	2.932896	-44.145458
878.201782	-29.110588	-44.235828	-6.903929
878.587585	-1.804771	-26.853468	7.986128
878.973389	-39.043137	7.895839	-61.532963
879.359070	-73.820213	42.624733	-54.080563
879.744751	20.526880	-46.719418	-21.797682
880.130310	-76.305130	-86.471664	-11.868117
880.515930	13.083934	-98.899811	-61.532963
880.901367	-96.187935	-59.139072	7.986128
881.286804	-36.559811	-24.370657	-61.532963
881.672180	-9.250599	-39.268906	-41.661983
882.057434	-111.104576	-19.405481	-36.695278
882.442749	-61.397434	-31.819342	-36.695278
882.827942	5.640050	-64.107681	-64.017349
883.213013	-24.144945	-81.501144	-64.017349
883.598145	-51.461159	-6.994174	-61.532963
883.983154	30.449402	-26.853468	-49.112797
884.368042	-66.366241	-39.268906	-1.940159
884.753052	-68.850838	-81.501144	-56.564564
885.137817	-26.627680	-81.501144	-73.955772
885.522644	-63.881821	30.223900	-51.596596
885.907349	-48.977303	-71.561363	-61.532963
886.292053	-36.559811	-66.592117	-81.410782
886.676636	-68.850838	-143.663284	-6.903929
887.061157	-68.850838	-76.531044	-4.422026
887.445740	-19.179722	-66.592117	-34.212116
887.830078	13.083934	-56.654953	-19.315149
888.214539	20.526880	-51.686974	-9.385937
888.598816	-130.999359	10.377120	-24.280384
888.983093	-19.179722	-66.592117	10.467405
889.367249	-48.977303	-101.385735	27.833641
889.751465	-31.593534	-31.819342	-21.797682
890.135498	-68.850838	-83.986313	27.833641
890.519531	-36.559811	-21.888016	-24.280384
890.903503	-86.245720	-44.235828	-78.925644
891.287415	35.410042	-54.170879	-76.440689
891.671326	-19.179722	-44.235828	-123.673691
892.055054	-78.790085	-21.888016	-76.440689
892.438843	-48.977303	47.584358	-73.955772
892.822510	-88.731094	-81.501144	7.986128
893.206116	30.449402	-19.405481	-51.596596
893.589661	-81.275208	-76.531044	52.633720
893.973206	-83.760376	-54.170879	-56.564564
894.356628	-34.076653	-44.235828	-31.728992
894.739990	8.121427	-96.414001	-78.925644
895.123352	-34.076653	12.858365	-34.212116
895.506592	-44.009975	0.451302	-19.315149
895.889832	-46.493622	-71.561363	-76.440689
896.272949	-63.881821	-56.654953	-14.350334
896.656067	8.121427	-9.476254	-14.350334
897.039063	-26.627680	30.223900	17.910681
897.422058	-34.076653	-76.531044	-36.695278
897.804993	3.158570	-44.235828	17.910681
898.187866	47.809795	5.414454	37.754940
898.570618	-46.493622	-29.336319	-34.212116
898.953369	-34.076653	-61.623356	-49.112797
899.336121	-66.366241	-34.302402	-4.422026
899.718689	0.676918	-76.531044	-93.837845
900.101257	-61.397434	-26.853468	-19.315149
900.483704	0.676918	-31.819342	-6.903929
900.866211	-96.187935	-46.719418	-106.267570
901.248596	-135.974152	-21.888016	-71.471024
901.630920	-63.881821	-31.819342	-71.471024
902.013184	-88.731094	-44.235828	-44.145458
902.395386	18.046024	-4.512267	-24.280384
902.777588	-34.076653	-101.385735	-54.080563
903.159668	-123.538017	-46.719418	-108.753807
903.541687	37.890171	-29.336319	-49.112797
903.923645	-96.187935	-51.686974	-46.629112
904.305603	-4.286632	-91.442619	-24.280384
904.687500	-48.977303	22.782169	-21.797682
905.069275	-111.104576	-16.922983	25.353022
905.451050	-148.412964	-36.785568	-31.728992
905.832642	-118.564308	42.624733	-31.728992
906.214294	13.083934	-96.414001	-41.661983
906.595825	-56.429050	-51.686974	10.467405
906.977417	-126.025009	-14.440658	-16.832724
907.358826	3.158570	-49.203175	-56.564564
907.740234	-48.977303	-36.785568	-1.940159
908.121582	-24.144945	-74.046181	-49.112797
908.502869	-96.187935	-21.888016	10.467405
908.884033	-39.043137	-56.654953	-9.385937
909.265198	-6.768529	-93.928215	-121.186737
909.646301	-39.043137	-44.235828	-14.350334
910.027344	-83.760376	-14.440658	3.023193
910.408325	-11.732706	-19.405481	-160.990265
910.789246	-44.009975	-71.561363	-51.596596
911.170105	-133.486664	-26.853468	-21.797682
911.550903	-41.526505	-111.330620	7.986128
911.931641	-53.945049	2.932896	-88.866684
912.312317	-44.009975	-31.819342	-34.212116
912.692932	10.602766	-24.370657	-11.868117
913.073547	-1.804771	42.624733	-49.112797
913.453979	-21.662315	-16.922983	-73.955772
913.834473	-83.760376	-79.016075	-1.940159
914.214783	-26.627680	-64.107681	-98.809357
914.595154	-6.768529	12.858365	0.541535
914.975464	-113.591026	-44.235828	-68.986313
915.355652	-48.977303	35.184555	-91.352173
915.735840	-66.366241	7.895839	-49.112797
916.115845	-26.627680	0.451302	17.910681
916.495972	-71.335472	17.820475	-41.661983
916.875854	-66.366241	-98.899811	-96.323547
917.255859	-86.245720	27.743382	-73.955772
917.635620	-16.697300	-36.785568	-118.699966
918.015503	-58.913223	-26.853468	-54.080563
918.395203	5.640050	5.414454	-19.315149
918.774902	-86.245720	-79.016075	0.541535
919.154480	-53.945049	-2.030464	-29.246040
919.534058	-14.214917	10.377120	37.754940
919.913574	-46.493622	20.301340	-121.186737
920.292969	-29.110588	-16.922983	-111.240227
920.672363	10.602766	-34.302402	-31.728992
921.051636	-66.366241	-4.512267	-4.422026
921.430969	-19.179722	-93.928215	-44.145458
921.810181	-24.144945	10.377120	-26.763126
922.189331	-19.179722	-71.561363	-128.647781
922.568420	3.158570	12.858365	-93.837845
922.947388	-58.913223	-79.016075	27.833641
923.326416	-58.913223	-21.888016	10.467405
923.705261	-58.913223	-29.336319	-73.955772
924.084106	-31.593534	-16.922983	62.550892
924.462891	-76.305130	-49.203175	-29.246040
924.841675	0.676918	-19.405481	-51.596596
925.220337	-73.820213	-56.654953	-34.212116
925.598938	-88.731094	-69.076721	-41.661983
925.977478	60.206966	-9.476254	-24.280384
926.355957	-24.144945	-6.994174	-9.385937
926.734436	-128.512161	-46.719418	-101.295349
927.112732	-4.286632	27.743382	-93.837845
927.491089	-73.820213	-36.785568	-46.629112
927.869324	-91.216583	-36.785568	30.314087
928.247559	-46.493622	-91.442619	0.541535
928.625671	-14.214917	27.743382	-39.178543
929.003723	-61.397434	-44.235828	20.391611
929.381775	-76.305130	-74.046181	-44.145458
929.759705	-48.977303	-113.817078	-93.837845
930.137634	-63.881821	-24.370657	-88.866684
930.515381	18.046024	-49.203175	-39.178543
930.893250	8.121427	7.895839	20.391611
931.270935	-29.110588	-36.785568	-56.564564
931.648560	-41.526505	-24.370657	-78.925644
932.026123	-93.702240	-101.385735	-49.112797
932.403687	-44.009975	-29.336319	-108.753807
932.781250	-48.977303	27.743382	-31.728992
933.158630	13.083934	10.377120	-9.385937
933.536011	-56.429050	-16.922983	-86.381233
933.913208	-73.820213	-11.958369	-73.955772
934.290527	-93.702240	27.743382	-96.323547
934.667664	-9.250599	55.022987	35.274738
935.044800	-14.214917	-11.958369	30.314087
935.421814	-78.790085	-86.471664	-29.246040
935.798889	-4.286632	27.743382	-68.986313
936.175842	-39.043137	-93.928215	-61.532963
936.552673	18.046024	15.339438	-34.212116
936.929504	-150.901062	-41.752281	-81.410782
937.306274	8.121427	-2.030464	32.794498
937.683044	-103.645737	-61.623356	-68.986313
938.059570	-14.214917	-71.561363	5.504679
938.436218	55.248394	12.858365	15.429716
938.812744	-61.397434	-131.225494	-59.048744
939.189148	-88.731094	-81.501144	-68.986313
939.565613	-48.977303	-44.235828	-64.017349
939.941956	-71.335472	-9.476254	-56.564564
940.318237	-61.397434	-66.592117	10.467405
940.694458	-66.366241	-4.512267	5.504679
941.070557	-68.850838	-64.107681	-91.352173
941.446655	-6.768529	-6.994174	45.194794
941.822693	18.046024	-81.501144	-64.017349
942.198669	-36.559811	-88.957054	-56.564564
942.574646	-88.731094	-64.107681	-26.763126
942.950562	-46.493622	-4.512267	-29.246040
943.326294	-44.009975	-69.076721	-36.695278
943.702026	-39.043137	-31.819342	-76.440689
944.077698	-53.945049	-11.958369	-113.726677
944.453369	-98.673805	2.932896	-71.471024
944.828918	-98.673805	-34.302402	-81.410782
945.204468	-29.110588	57.502296	-6.903929
945.579834	18.046024	-19.405481	-41.661983
945.955261	-81.275208	-74.046181	-101.295349
946.330627	-58.913223	-88.957054	-68.986313
946.705811	-103.645737	-86.471664	-34.212116
947.081055	-83.760376	-41.752281	-9.385937
947.456177	-6.768529	-29.336319	-68.986313
947.831238	-21.662315	-6.994174	-39.178543
948.206238	-31.593534	-31.819342	-29.246040
948.581238	25.488348	-71.561363	-16.832724
948.956116	-51.461159	-88.957054	-54.080563
949.330933	-68.850838	-26.853468	-98.809357
949.705811	15.565064	-91.442619	-21.797682
950.080505	-51.461159	-79.016075	-44.145458
950.455139	-78.790085	-64.107681	-4.422026
950.829773	-71.335472	-79.016075	-19.315149
951.204346	-9.250599	55.022987	47.674519
951.578735	15.565064	17.820475	45.194794
951.953186	-19.179722	-31.819342	-61.532963
952.327515	-86.245720	-4.512267	12.948579
952.701843	-108.618172	-34.302402	-64.017349
953.076172	-123.538017	-19.405481	-39.178543
953.450195	-16.697300	-61.623356	-24.280384
953.824341	-103.645737	-31.819342	17.910681
954.198486	-128.512161	-6.994174	-46.629112
954.572449	-29.110588	-138.687897	0.541535
954.946350	47.809795	-101.385735	-49.112797
955.320251	-111.104576	-44.235828	-91.352173
955.694092	-61.397434	-49.203175	-16.832724
956.067871	-36.559811	-54.170879	12.948579
956.441589	-96.187935	-24.370657	-81.410782
956.815125	-53.945049	-34.302402	-113.726677
957.188721	-39.043137	-46.719418	45.194794
957.562256	-26.627680	-106.357971	-44.145458
957.935730	-91.216583	-56.654953	-39.178543
958.309021	-103.645737	-59.139072	-64.017349
958.682373	-78.790085	-91.442619	-76.440689
959.055664	-76.305130	-71.561363	-83.895958
959.428955	-21.662315	-19.405481	-66.501778
959.802063	-98.673805	-19.405481	-83.895958
960.175110	-31.593534	-26.853468	-41.661983
960.548157	-148.412964	-49.203175	-59.048744
960.921143	-63.881821	-74.046181	-39.178543
961.294128	-39.043137	-31.819342	-11.868117
961.666809	-14.214917	-88.957054	-78.925644
962.039612	-11.732706	-19.405481	-11.868117
962.412415	-71.335472	-21.888016	-66.501778
962.785095	-126.025009	-31.819342	-64.017349
963.157715	-71.335472	-21.888016	-9.385937
963.530151	-14.214917	5.414454	-73.955772
963.902649	18.046024	-14.440658	-24.280384
964.275146	8.121427	-116.303711	50.154205
964.647522	-41.526505	-128.738281	12.948579
965.019714	-86.245720	-96.414001	-31.728992
965.392029	-56.429050	-79.016075	60.071720
965.764160	-51.461159	-9.476254	-6.903929
966.136292	-46.493622	-39.268906	-16.832724
966.508423	10.602766	-116.303711	-118.699966
966.880371	-68.850838	-54.170879	-83.895958
967.252319	-44.009975	-39.268906	0.541535
967.624207	-98.673805	-46.719418	-46.629112
967.996094	-106.131935	-46.719418	-71.471024
968.367737	20.526880	-69.076721	5.504679
968.739441	-44.009975	-56.654953	-68.986313
969.111084	-83.760376	-44.235828	-61.532963
969.482666	-78.790085	-91.442619	-46.629112
969.854248	-113.591026	-121.277229	-6.903929
970.225586	-44.009975	-81.501144	-46.629112
970.596985	-91.216583	-81.501144	-93.837845
970.968323	-88.731094	-118.790390	-41.661983
971.339661	-76.305130	-39.268906	47.674519
971.710754	-168.320724	-86.471664	0.541535
972.081909	-11.732706	59.981579	12.948579
972.453064	-16.697300	-131.225494	-39.178543
972.824097	-6.768529	-93.928215	-1.940159
973.194946	-118.564308	-11.958369	-118.699966
973.565918	-19.179722	-74.046181	-59.048744
973.936768	20.526880	-29.336319	-76.440689
974.307556	-29.110588	-29.336319	0.541535
974.678284	-98.673805	-34.302402	17.910681
975.048828	-39.043137	-34.302402	-93.837845
975.419495	0.676918	-24.370657	-44.145458
975.790039	-76.305130	2.932896	-76.440689
976.160522	20.526880	15.339438	-19.315149
976.530884	-58.913223	-56.654953	-41.661983
976.901245	10.602766	-103.871834	10.467405
977.271606	-91.216583	-103.871834	-81.410782
977.641846	-66.366241	-76.531044	-39.178543
978.012024	3.158570	-19.405481	-86.381233
978.382019	-16.697300	20.301340	-101.295349
978.752136	25.488348	-41.752281	-6.903929
979.122131	-1.804771	-54.170879	17.910681
979.492065	0.676918	-88.957054	7.986128
979.861877	3.158570	2.932896	-31.728992
980.231689	-111.104576	-66.592117	-11.868117
980.601440	-53.945049	-121.277229	-73.955772
980.971191	-68.850838	-51.686974	-39.178543
981.340820	-58.913223	-16.922983	-64.017349
981.710266	-36.559811	-31.819342	-96.323547
982.079773	-26.627680	-6.994174	-56.564564
982.449280	-56.429050	-19.405481	-6.903929
982.818604	-26.627680	-56.654953	-71.471024
983.187866	0.676918	47.584358	-78.925644
983.557129	-6.768529	-71.561363	-31.728992
983.926331	-36.559811	-6.994174	-34.212116
984.295471	-36.559811	-86.471664	-34.212116
984.664612	-123.538017	-34.302402	-64.017349
985.033569	-29.110588	-2.030464	-11.868117
985.402527	-14.214917	-56.654953	0.541535
985.771362	-118.564308	-66.592117	-64.017349
986.140259	-101.159721	-19.405481	-41.661983
986.508911	-39.043137	-91.442619	7.986128
986.877625	-29.110588	-41.752281	-68.986313
987.246277	-81.275208	-131.225494	-68.986313
987.614929	-56.429050	-31.819342	-56.564564
987.983459	-126.025009	-103.871834	-21.797682
988.351807	-98.673805	-108.844276	-68.986313
988.720215	-41.526505	-21.888016	-81.410782
989.088623	-1.804771	-88.957054	-68.986313
989.456909	-46.493622	-101.385735	-98.809357
989.825012	-19.179722	-46.719418	-49.112797
990.193115	-98.673805	-41.752281	-14.350334
990.561279	-21.662315	-14.440658	-34.212116
990.929321	-66.366241	-79.016075	-68.986313
991.297302	-24.144945	-2.030464	-93.837845
991.665100	-16.697300	-106.357971	-41.661983
992.033020	-48.977303	32.704247	-66.501778
992.400818	-16.697300	-111.330620	-123.673691
992.768494	-91.216583	-71.561363	-146.060699
993.136047	-83.760376	-34.302402	5.504679
993.503723	-36.559811	-16.922983	-41.661983
993.871277	-29.110588	-49.203175	-34.212116
994.238770	-26.627680	-101.385735	-56.564564
994.606140	-24.144945	-79.016075	-41.661983
994.973450	-11.732706	-93.928215	-78.925644
995.340759	-66.366241	-93.928215	-108.753807
995.708008	-53.945049	-83.986313	-66.501778
996.075195	-103.645737	-46.719418	-68.986313
996.442200	-93.702240	-9.476254	-24.280384
996.809265	-41.526505	-133.712875	-71.471024
997.176270	-31.593534	-93.928215	-44.145458
997.543152	15.565064	2.932896	-24.280384
997.910095	5.640050	-29.336319	-59.048744
998.276733	-26.627680	-11.958369	-19.315149
998.643494	-61.397434	7.895839	-101.295349
999.010193	-68.850838	-96.414001	-66.501778
999.376831	-111.104576	-2.030464	-54.080563
999.743286	-31.593534	-54.170879	-21.797682
1000.109802	-108.618172	-69.076721	27.833641
1000.476257	-51.461159	-83.986313	-44.145458
1000.842651	-16.697300	-36.785568	-51.596596
1001.208923	-61.397434	-34.302402	37.754940
1001.575134	-78.790085	-81.501144	-44.145458
1001.941284	-170.809662	-54.170879	-46.629112
1002.307434	-96.187935	-4.512267	-39.178543
1002.673523	-39.043137	-46.719418	-9.385937
1003.039429	-76.305130	-136.200302	10.467405
1003.405334	20.526880	-71.561363	-54.080563
1003.771179	-155.877548	-69.076721	-91.352173
1004.137024	-116.077644	-69.076721	-108.753807
1004.502808	-24.144945	-21.888016	-31.728992
1004.868408	-91.216583	-69.076721	-16.832724
1005.234009	-51.461159	-31.819342	10.467405
1005.599609	32.929806	12.858365	-21.797682
1005.965149	-56.429050	-59.139072	-88.866684
1006.330444	-9.250599	-41.752281	-19.315149
1006.695862	-11.732706	-93.928215	40.234974
1007.061218	-51.461159	-14.440658	-29.246040
1007.426453	8.121427	-4.512267	-6.903929
1007.791626	-46.493622	-71.561363	-98.809357
1008.156677	-66.366241	-54.170879	-61.532963
1008.521729	-46.493622	-26.853468	-26.763126
1008.886780	-48.977303	-66.592117	-88.866684
1009.251709	-93.702240	-71.561363	-41.661983
1009.616577	-118.564308	-81.501144	-93.837845
1009.981384	-9.250599	0.451302	-71.471024
1010.346130	-19.179722	-31.819342	-24.280384
1010.710754	-31.593534	-6.994174	7.986128
1011.075439	15.565064	0.451302	-34.212116
1011.439941	92.427650	-46.719418	-136.109818
1011.804443	-41.526505	-21.888016	-61.532963
1012.168884	-158.365967	-91.442619	5.504679
1012.533325	-63.881821	37.664696	-19.315149
1012.897522	-14.214917	-9.476254	-51.596596
1013.261780	-53.945049	-71.561363	-68.986313
1013.626038	-83.760376	-79.016075	-56.564564
1013.990112	-26.627680	-24.370657	-49.112797
1014.354187	-78.790085	-83.986313	27.833641
1014.718140	-71.335472	-14.440658	30.314087
1015.082153	-11.732706	-91.442619	-121.186737
1015.446045	30.449402	-44.235828	22.872368
1015.809937	3.158570	-14.440658	-86.381233
1016.173523	-36.559811	25.262827	-73.955772
1016.537170	-44.009975	-46.719418	-49.112797
1016.900879	-53.945049	-66.592117	-61.532963
1017.264404	-83.760376	-106.357971	-11.868117
1017.627991	-14.214917	-34.302402	-29.246040
1017.991333	-51.461159	-74.046181	-59.048744
1018.354675	-121.051079	25.262827	-54.080563
1018.718018	-44.009975	-56.654953	-61.532963
1019.081299	-53.945049	-93.928215	-4.422026
1019.444397	-61.397434	-9.476254	-1.940159
1019.807495	18.046024	-56.654953	-103.781364
1020.170593	-51.461159	-76.531044	-49.112797
1020.533691	-39.043137	-76.531044	-66.501778
1020.896606	-88.731094	-36.785568	-78.925644
1021.259460	-78.790085	7.895839	-21.797682
1021.622253	-46.493622	-123.764122	0.541535
1021.985046	-48.977303	-86.471664	-68.986313
1022.347778	-88.731094	5.414454	-44.145458
1022.710327	-19.179722	57.502296	-44.145458
1023.072876	-29.110588	-6.994174	-116.213234
1023.435364	-6.768529	-11.958369	-19.315149
1023.797852	-58.913223	-36.785568	-61.532963
1024.160278	-93.702240	-76.531044	-66.501778
1024.522461	-61.397434	-26.853468	-61.532963
1024.884766	-96.187935	-101.385735	-68.986313
1025.246948	-86.245720	-4.512267	-96.323547
1025.609131	-63.881821	-11.958369	-64.017349
1025.971069	-6.768529	-66.592117	-68.986313
1026.333130	-91.216583	-9.476254	-86.381233
1026.694946	32.929806	12.858365	-11.868117
1027.056885	102.338173	57.502296	5.504679
1027.418823	-4.286632	-9.476254	12.948579
1027.780396	5.640050	-76.531044	-93.837845
1028.142090	-36.559811	42.624733	-73.955772
1028.503784	-6.768529	-141.175537	-81.410782
1028.865479	-58.913223	-91.442619	-123.673691
1029.226807	-9.250599	-126.251175	-76.440689
1029.588135	-1.804771	-123.764122	-66.501778
1029.949707	-58.913223	-54.170879	-83.895958
1030.310913	-14.214917	-74.046181	-41.661983
1030.672241	-101.159721	17.820475	-34.212116
1031.033325	-108.618172	10.377120	-106.267570
1031.394531	10.602766	-74.046181	-59.048744
1031.755493	-29.110588	-21.888016	-31.728992
1032.116577	-66.366241	-19.405481	-54.080563
1032.477417	-53.945049	-21.888016	-121.186737
1032.838257	-34.076653	-86.471664	20.391611
1033.199097	-81.275208	27.743382	-66.501778
1033.559937	-39.043137	-81.501144	3.023193
1033.920654	-68.850838	-39.268906	-116.213234
1034.281128	-93.702240	-108.844276	-44.145458
1034.641724	-46.493622	-79.016075	-131.135056
1035.002197	-71.335472	-34.302402	-16.832724
1035.362671	-19.179722	-76.531044	-56.564564
1035.722900	-48.977303	-41.752281	-59.048744
1036.083252	-34.076653	-128.738281	-29.246040
1036.443481	-86.245720	-123.764122	52.633720
1036.803711	-26.627680	-49.203175	-116.213234
1037.163940	-26.627680	-6.994174	-14.350334
1037.523804	-58.913223	25.262827	-71.471024
1037.883789	-86.245720	27.743382	-66.501778
1038.243774	-51.461159	-14.440658	-68.986313
1038.603638	13.083934	27.743382	-34.212116
1038.963257	-108.618172	10.377120	-59.048744
1039.323120	-76.305130	-24.370657	-78.925644
1039.682861	-66.366241	-49.203175	-4.422026
>>>>>End Processed Spectral Data<<<<<
