Jaz Data File
++++++++++++++++++++++++++++++++++++
Date: Sat Dec 06 17:06:54 2014
User: jaz
Dark Spectrum Present: Yes
Reference Spectrum Present: Yes
Processed Spectrum Present: No
Spectrometers: JAZA2310
Integration Time (usec): 11700 (JAZA2310)
Spectra Averaged: 1 (JAZA2310)
Boxcar Smoothing: 0 (JAZA2310)
Correct for Electrical Dark: Yes (JAZA2310)
Strobe/Lamp Enabled: No (JAZA2310)
Correct for Detector Non-linearity: Yes (JAZA2310)
Correct for Stray Light: No (JAZA2310)
Number of Pixels in Processed Spectrum: 2048
>>>>>Begin Processed Spectral Data<<<<<
W	D	R	S
188.301102	0.000000	0.000000	0.000000
188.764923	0.000000	0.000000	0.000000
189.228699	-74.415413	7.895637	-33.331814
189.692459	-54.539982	-61.623558	-18.435139
190.156158	-12.327209	-21.888287	-48.232410
190.619812	-22.256920	-71.561638	-33.331814
191.083435	-54.539982	5.414184	-35.815006
191.547043	-22.256920	37.664425	65.908653
192.010590	-52.056133	22.781900	-20.917702
192.474091	-74.415413	-46.719688	55.992039
192.937561	-14.809513	5.414184	-13.470466
193.401001	-34.671452	0.451100	-45.748692
193.864410	54.654564	-16.923185	43.594059
194.327759	-22.256920	15.339235	23.751751
194.791077	54.654564	45.104427	80.780418
195.254349	-24.739643	-26.853672	28.712881
195.717575	5.045722	22.781900	23.751751
196.180786	-37.154564	-16.923185	65.908653
196.643951	29.855324	35.184357	-23.400368
197.107071	-12.327209	-2.030666	3.902802
197.570145	7.527056	27.743246	51.033184
198.033203	52.175060	82.289848	63.429619
198.496216	7.527056	-21.888287	3.902802
198.959167	-29.705269	-21.888287	55.992039
199.422089	0.082472	79.811501	13.828109
199.884979	-4.881060	40.144531	-28.365881
200.347855	14.970702	57.502094	28.712881
200.810654	76.965027	45.104427	58.471382
201.273422	47.215889	5.414184	13.828109
201.736160	-76.900360	7.895637	63.429619
202.198853	10.008420	20.301071	6.384319
202.661514	47.215889	87.246254	-18.435139
203.124130	-76.900360	10.376986	6.384319
203.586700	42.256165	17.820272	-20.917702
204.049240	-39.637917	-2.030666	13.828109
204.511734	-66.961372	72.375954	-6.024172
204.974197	-47.088478	22.781900	-33.331814
205.436615	-34.671452	47.584087	-97.928215
205.899002	34.815945	-16.923185	-1.060408
206.361343	-37.154564	0.451100	-50.716099
206.823654	-12.327209	42.624531	-70.590225
207.285919	-29.705269	12.858095	-43.265079
207.748123	-14.809513	47.584087	-13.470466
208.210327	-49.572250	-36.785839	-85.500214
208.672485	-29.705269	20.301071	-45.748692
209.134583	-34.671452	15.339235	-15.952682
209.596649	-47.088478	-11.958639	-55.684063
210.058670	-86.841042	10.376986	-23.400368
210.520676	-52.056133	20.301071	-30.848862
210.982635	-29.705269	-98.900085	-97.928215
211.444534	-134.082489	55.022717	-13.470466
211.906403	-64.476852	22.781900	-6.024172
212.368240	-42.121376	-19.405684	28.712881
212.830048	-74.415413	22.781900	16.309210
213.291779	-17.291922	-21.888287	-58.168068
213.753494	-74.415413	-31.819477	-55.684063
214.215179	-17.291922	-88.957329	-40.781708
214.676819	-71.930580	-11.958639	33.673733
215.138412	14.970702	-2.030666	-45.748692
215.599960	-54.539982	-26.853672	90.692932
216.061493	-37.154564	0.451100	-6.024172
216.522949	-79.385269	-29.336588	-25.883005
216.984406	-9.845144	-29.336588	1.421317
217.445801	-79.385269	15.339235	-6.024172
217.907166	-54.539982	12.858095	8.865731
218.368484	-42.121376	62.460552	-6.024172
218.829773	2.564149	-69.076927	-55.684063
219.291031	22.413546	47.584087	-6.024172
219.752228	7.527056	-14.440793	-33.331814
220.213379	34.815945	-21.888287	-83.015038
220.674500	-14.809513	-74.046318	16.309210
221.135574	10.008420	57.502094	-8.506075
221.596634	-52.056133	-71.561638	23.751751
222.057648	-34.671452	-11.958639	-65.621124
222.518600	-101.755203	27.743246	-58.168068
222.979553	7.527056	22.781900	1.421317
223.440430	-94.297646	-26.853672	23.751751
223.901276	-101.755203	-6.994376	23.751751
224.362076	5.045722	-56.655224	-50.716099
224.822845	12.489680	47.584087	58.471382
225.283569	-96.783302	5.414184	6.384319
225.744278	-76.900360	-49.203312	-33.331814
226.204910	-29.705269	20.301071	-48.232410
226.665512	-4.881060	-11.958639	36.153866
227.126114	-99.269203	52.543365	-10.988217
227.586639	-86.841042	-21.888287	-38.298302
228.047119	10.008420	-2.030666	46.073780
228.507568	-9.845144	-71.561638	-70.590225
228.967972	-84.355675	15.339235	-6.024172
229.428345	-104.241318	-93.928421	23.751751
229.888687	-69.445992	22.781900	-25.883005
230.348984	12.489680	-56.655224	3.902802
230.809219	-14.809513	-39.269176	-6.024172
231.269440	24.894152	-41.752483	8.865731
231.729614	-29.705269	-14.440793	1.421317
232.189758	-24.739643	-39.269176	-1.060408
232.649841	-119.159973	47.584087	78.302139
233.109894	19.932701	45.104427	85.736954
233.569901	-17.291922	32.704044	46.073780
234.029892	-49.572250	-11.958639	-43.265079
234.489822	-69.445992	45.104427	-15.952682
234.949707	-42.121376	-41.752483	43.594059
235.409561	-44.604942	47.584087	-13.470466
235.869385	-39.637917	0.451100	-83.015038
236.329163	-52.056133	-29.336588	46.073780
236.788895	-4.881060	-61.623558	-28.365881
237.248581	-4.881060	-44.236034	-15.952682
237.708237	-27.222471	-24.370859	-60.652317
238.167847	-52.056133	126.882118	-23.400368
238.627441	52.175060	-54.171150	-100.414162
239.086960	-52.056133	30.223631	-53.200027
239.546463	-109.213730	-26.853672	-33.331814
240.005920	-17.291922	-21.888287	-58.168068
240.465332	-24.739643	42.624531	-13.470466
240.924698	-59.508274	32.704044	-35.815006
241.384033	-64.476852	-39.269176	-68.105553
241.843338	-17.291922	-19.405684	-33.331814
242.302597	-101.755203	-51.687176	-30.848862
242.761810	44.736080	-19.405684	18.790070
243.220993	-27.222471	-6.994376	-35.815006
243.680115	-27.222471	-16.923185	-18.435139
244.139221	-14.809513	0.451100	-13.470466
244.598282	-61.992577	-16.923185	-75.559753
245.057297	7.527056	-9.476456	-70.590225
245.516266	37.296165	-101.385933	1.421317
245.975189	-39.637917	25.262625	26.232435
246.434082	-39.637917	25.262625	33.673733
246.892944	7.527056	2.932626	23.751751
247.351761	-74.415413	62.460552	-1.060408
247.810516	-52.056133	7.895637	-63.136669
248.269272	-119.159973	-11.958639	21.270964
248.727951	-2.399309	-24.370859	21.270964
249.186600	-14.809513	-31.819477	60.950619
249.645218	-54.539982	5.414184	-20.917702
250.103790	5.045722	27.743246	1.421317
250.562317	-74.415413	2.932626	-18.435139
251.020813	-74.415413	-59.139275	-3.542238
251.479279	-61.992577	77.333176	3.902802
251.937668	-34.671452	22.781900	-15.952682
252.396057	2.564149	-11.958639	1.421317
252.854385	-44.604942	20.301071	-70.590225
253.312683	-66.961372	30.223631	-68.105553
253.770920	34.815945	67.418457	-15.952682
254.229126	19.932701	-14.440793	11.346905
254.687302	12.489680	-21.888287	-80.529839
255.145432	-89.326378	30.223631	-90.471146
255.603500	-24.739643	-49.203312	3.902802
256.061584	-52.056133	35.184357	16.309210
256.519592	-29.705269	5.414184	-60.652317
256.977570	-116.673218	-29.336588	-48.232410
257.435455	-2.399309	-2.030666	-33.331814
257.893372	-49.572250	32.704044	-30.848862
258.351196	-39.637917	20.301071	-40.781708
258.808990	-2.399309	40.144531	3.902802
259.266754	-71.930580	25.262625	-50.716099
259.724487	-106.727402	32.704044	-23.400368
260.182190	-54.539982	5.414184	-18.435139
260.639832	-9.845144	-24.370859	-25.883005
261.097443	-34.671452	5.414184	-25.883005
261.554993	-34.671452	-11.958639	-1.060408
262.012512	-2.399309	-66.592316	-43.265079
262.469971	2.564149	-36.785839	38.634033
262.927429	29.855324	0.451100	8.865731
263.384827	62.092308	45.104427	33.673733
263.842194	-47.088478	-6.994376	23.751751
264.299530	-44.604942	5.414184	-15.952682
264.756805	-141.545197	15.339235	-35.815006
265.214050	-86.841042	-79.016273	31.193357
265.671234	-76.900360	27.743246	16.309210
266.128387	-39.637917	-121.277435	-18.435139
266.585510	-44.604942	-64.107956	28.712881
267.042572	-29.705269	32.704044	28.712881
267.499573	-17.291922	-34.302605	-92.956642
267.956604	2.564149	25.262625	70.866272
268.413574	-24.739643	62.460552	-3.542238
268.870483	-101.755203	-16.923185	23.751751
269.327362	64.571396	40.144531	-3.542238
269.784180	0.082472	5.414184	43.594059
270.240936	-101.755203	-24.370859	-3.542238
270.697693	-34.671452	-6.994376	-18.435139
271.154419	-42.121376	62.460552	48.553535
271.611053	-119.159973	-41.752483	31.193357
272.067688	5.045722	-56.655224	-28.365881
272.524292	-76.900360	-36.785839	-43.265079
272.980835	-14.809513	-88.957329	8.865731
273.437347	-34.671452	-11.958639	78.302139
273.893799	7.527056	74.854614	-55.684063
274.350250	-66.961372	52.543365	-18.435139
274.806610	-24.739643	-49.203312	6.384319
275.262939	39.776283	64.939484	26.232435
275.719238	-17.291922	0.451100	31.193357
276.175507	-4.881060	-9.476456	-53.200027
276.631714	-66.961372	-36.785839	-40.781708
277.087891	-34.671452	-26.853672	6.384319
277.544067	-34.671452	-21.888287	-48.232410
278.000122	-42.121376	-21.888287	-15.952682
278.456177	-64.476852	2.932626	-6.024172
278.912201	-7.363050	52.543365	-23.400368
279.368164	-64.476852	20.301071	53.512596
279.824097	14.970702	10.376986	26.232435
280.279968	5.045722	35.184357	11.346905
280.735840	-19.774302	2.932626	-100.414162
281.191620	-89.326378	-41.752483	-18.435139
281.647400	-37.154564	22.781900	-25.883005
282.103149	-19.774302	-24.370859	-1.060408
282.558838	-64.476852	10.376986	23.751751
283.014465	-104.241318	15.339235	60.950619
283.470062	-34.671452	-14.440793	-18.435139
283.925629	-81.870422	40.144531	-53.200027
284.381134	-106.727402	-36.785839	28.712881
284.836639	-17.291922	-14.440793	-55.684063
285.292053	-19.774302	-39.269176	-78.044739
285.747467	29.855324	35.184357	-70.590225
286.202820	72.007912	27.743246	60.950619
286.658142	-32.188305	27.743246	-10.988217
287.113434	-7.363050	25.262625	41.114098
287.568634	47.215889	-81.501411	-45.748692
288.023804	-57.024075	57.502094	-38.298302
288.478973	-57.024075	32.704044	-53.200027
288.934113	-86.841042	20.301071	-13.470466
289.389130	-57.024075	-19.405684	-50.716099
289.844208	0.082472	-9.476456	-20.917702
290.299164	-57.024075	-49.203312	18.790070
290.754089	-126.620743	10.376986	11.346905
291.208984	-96.783302	17.820272	-122.792107
291.663879	-9.845144	-81.501411	-23.400368
292.118683	-52.056133	50.063778	-10.988217
292.573456	27.374788	-51.687176	3.902802
293.028198	5.045722	20.301071	-48.232410
293.482849	-149.008881	-39.269176	-40.781708
293.937561	-34.671452	-26.853672	3.902802
294.392151	-22.256920	-46.719688	1.421317
294.846741	-22.256920	-24.370859	-1.060408
295.301239	-44.604942	17.820272	-23.400368
295.755737	-54.539982	2.932626	46.073780
296.210175	-17.291922	-66.592316	60.950619
296.664581	-12.327209	25.262625	-1.060408
297.118958	-14.809513	-2.030666	-15.952682
297.573242	-54.539982	-66.592316	-70.590225
298.027557	-66.961372	-11.958639	-83.015038
298.481812	-54.539982	30.223631	-45.748692
298.935974	10.008420	-34.302605	-38.298302
299.390137	-47.088478	-21.888287	-8.506075
299.844238	-84.355675	17.820272	-63.136669
300.298340	-99.269203	7.895637	-1.060408
300.752350	-27.222471	27.743246	-25.883005
301.206360	-4.881060	-51.687176	16.309210
301.660278	-84.355675	-19.405684	18.790070
302.114197	-91.811958	-4.512537	-13.470466
302.568054	-47.088478	-24.370859	-45.748692
303.021881	-44.604942	-34.302605	16.309210
303.475677	-54.539982	-31.819477	-38.298302
303.929413	29.855324	0.451100	-20.917702
304.383118	-116.673218	10.376986	-38.298302
304.836761	-17.291922	30.223631	6.384319
305.290375	7.527056	-36.785839	-23.400368
305.743958	-17.291922	52.543365	-15.952682
306.197510	-47.088478	37.664425	-65.621124
306.650970	-39.637917	-34.302605	8.865731
307.104431	-22.256920	-29.336588	-28.365881
307.557800	59.613117	-24.370859	11.346905
308.011169	37.296165	37.664425	58.471382
308.464508	-9.845144	40.144531	-63.136669
308.917755	-27.222471	-46.719688	-45.748692
309.371063	-39.637917	25.262625	-58.168068
309.824219	-84.355675	-14.440793	-55.684063
310.277374	-24.739643	-11.958639	-13.470466
310.730499	-116.673218	32.704044	-73.075005
311.183563	0.082472	-19.405684	-13.470466
311.636597	-61.992577	-11.958639	36.153866
312.089569	-17.291922	-2.030666	26.232435
312.542511	72.007912	-31.819477	36.153866
312.995422	-27.222471	0.451100	43.594059
313.448273	-34.671452	22.781900	-18.435139
313.901093	-76.900360	-2.030666	6.384319
314.353882	-4.881060	-16.923185	-40.781708
314.806580	-79.385269	35.184357	-30.848862
315.259308	0.082472	-9.476456	-6.024172
315.711975	-49.572250	-6.994376	21.270964
316.164581	-59.508274	10.376986	-68.105553
316.617126	-54.539982	-96.414200	58.471382
317.069672	-34.671452	-39.269176	-92.956642
317.522156	-71.930580	-9.476456	-90.471146
317.974579	-42.121376	-16.923185	8.865731
318.427002	-12.327209	-29.336588	26.232435
318.879333	-17.291922	30.223631	3.902802
319.331665	7.527056	-26.853672	28.712881
319.783936	-19.774302	-66.592316	-8.506075
320.236176	19.932701	-44.236034	-53.200027
320.688354	10.008420	32.704044	-40.781708
321.140503	-39.637917	-61.623558	-80.529839
321.592651	-69.445992	-16.923185	-3.542238
322.044647	-52.056133	52.543365	11.346905
322.496704	-44.604942	-16.923185	-6.024172
322.948639	-22.256920	-11.958639	-25.883005
323.400604	7.527056	-54.171150	-3.542238
323.852509	-59.508274	94.679955	-30.848862
324.304352	-39.637917	-66.592316	-55.684063
324.756165	-124.133667	-11.958639	6.384319
325.207916	-42.121376	-56.655224	-97.928215
325.659668	14.970702	-34.302605	-18.435139
326.111328	-66.961372	-39.269176	1.421317
326.562988	-42.121376	-26.853672	1.421317
327.014557	-57.024075	89.724167	-53.200027
327.466156	-4.881060	7.895637	1.421317
327.917664	-71.930580	82.289848	28.712881
328.369110	12.489680	10.376986	1.421317
328.820557	-32.188305	12.858095	33.673733
329.271942	-54.539982	-44.236034	58.471382
329.723297	-81.870422	12.858095	-15.952682
330.174561	-39.637917	0.451100	-20.917702
330.625854	-54.539982	-26.853672	-1.060408
331.077026	-17.291922	-24.370859	6.384319
331.528229	-29.705269	10.376986	65.908653
331.979370	10.008420	25.262625	33.673733
332.430450	-34.671452	47.584087	36.153866
332.881500	-7.363050	-86.471870	65.908653
333.332489	-61.992577	-24.370859	21.270964
333.783478	-76.900360	15.339235	6.384319
334.234406	-71.930580	10.376986	-8.506075
334.685303	5.045722	17.820272	18.790070
335.136078	-71.930580	89.724167	-68.105553
335.586914	-32.188305	-4.512537	-23.400368
336.037659	-24.739643	-11.958639	3.902802
336.488342	10.008420	99.635208	-33.331814
336.939026	42.256165	25.262625	48.553535
337.389648	44.736080	25.262625	-18.435139
337.840240	-17.291922	107.067375	-6.024172
338.290771	-34.671452	87.246254	-18.435139
338.741272	-19.774302	20.301071	18.790070
339.191681	-47.088478	-4.512537	11.346905
339.642120	-44.604942	-51.687176	-50.716099
340.092468	-74.415413	0.451100	-18.435139
340.542816	-12.327209	5.414184	11.346905
340.993103	-24.739643	2.932626	-55.684063
341.443329	-61.992577	-66.592316	-45.748692
341.893555	-49.572250	-36.785839	-92.956642
342.343689	-17.291922	-24.370859	18.790070
342.793793	-14.809513	-4.512537	3.902802
343.243866	-12.327209	10.376986	-30.848862
343.693878	-91.811958	30.223631	-3.542238
344.143890	-12.327209	2.932626	-18.435139
344.593842	-39.637917	37.664425	137.755066
345.043732	-14.809513	-34.302605	23.751751
345.493591	-49.572250	-46.719688	41.114098
345.943359	-69.445992	74.854614	-75.559753
346.393158	-71.930580	5.414184	3.902802
346.842896	-84.355675	32.704044	18.790070
347.292542	52.175060	5.414184	-30.848862
347.742218	10.008420	79.811501	11.346905
348.191803	-69.445992	35.184357	26.232435
348.641357	-4.881060	-14.440793	46.073780
349.090881	-24.739643	10.376986	-38.298302
349.540314	-54.539982	22.781900	88.214928
349.989777	-124.133667	2.932626	-1.060408
350.439148	-47.088478	72.375954	-33.331814
350.888489	-9.845144	22.781900	-55.684063
351.337799	-44.604942	12.858095	-10.988217
351.787048	-49.572250	2.932626	-35.815006
352.236267	29.855324	57.502094	-18.435139
352.685425	-42.121376	52.543365	-1.060408
353.134552	-12.327209	5.414184	28.712881
353.583649	-34.671452	-4.512537	-15.952682
354.032684	-32.188305	-24.370859	-53.200027
354.481659	-79.385269	37.664425	53.512596
354.930634	-2.399309	47.584087	-10.988217
355.379517	-57.024075	-9.476456	-6.024172
355.828430	-32.188305	-14.440793	-8.506075
356.277222	-94.297646	59.981377	-25.883005
356.726013	64.571396	69.897324	41.114098
357.174774	-37.154564	12.858095	3.902802
357.623444	-81.870422	-36.785839	-43.265079
358.072113	-42.121376	-34.302605	-1.060408
358.520721	-66.961372	42.624531	13.828109
358.969299	-9.845144	22.781900	46.073780
359.417786	0.082472	-79.016273	36.153866
359.866302	-61.992577	-2.030666	58.471382
360.314697	-29.705269	10.376986	-20.917702
360.763123	-19.774302	25.262625	-13.470466
361.211456	-94.297646	17.820272	13.828109
361.659760	-61.992577	7.895637	18.790070
362.108032	-49.572250	0.451100	-1.060408
362.556244	-54.539982	27.743246	16.309210
363.004456	-69.445992	55.022717	-38.298302
363.452576	-9.845144	12.858095	3.902802
363.900696	-42.121376	30.223631	-3.542238
364.348663	-86.841042	37.664425	58.471382
364.796722	-2.399309	-59.139275	28.712881
365.244690	-71.930580	10.376986	28.712881
365.692596	-57.024075	32.704044	18.790070
366.140472	-19.774302	112.021736	11.346905
366.588287	-24.739643	-39.269176	-33.331814
367.036102	-52.056133	55.022717	-20.917702
367.483826	-96.783302	69.897324	-23.400368
367.931549	12.489680	10.376986	36.153866
368.379181	-27.222471	77.333176	-28.365881
368.826843	19.932701	47.584087	-1.060408
369.274384	5.045722	124.405594	100.603813
369.721924	19.932701	77.333176	-50.716099
370.169403	-37.154564	5.414184	-23.400368
370.616821	-7.363050	-19.405684	-33.331814
371.064270	12.489680	37.664425	41.114098
371.511566	-17.291922	-19.405684	-6.024172
371.958923	-69.445992	67.418457	-50.716099
372.406158	-19.774302	30.223631	11.346905
372.853424	-34.671452	55.022717	53.512596
373.300568	22.413546	59.981377	3.902802
373.747711	-4.881060	82.289848	31.193357
374.194794	-47.088478	64.939484	13.828109
374.641846	-52.056133	35.184357	-25.883005
375.088898	-71.930580	64.939484	-8.506075
375.535828	-66.961372	12.858095	-48.232410
375.982758	-61.992577	7.895637	-35.815006
376.429596	5.045722	0.451100	13.828109
376.876465	-57.024075	22.781900	-60.652317
377.323242	-22.256920	22.781900	-50.716099
377.769989	-64.476852	0.451100	-40.781708
378.216675	-9.845144	15.339235	60.950619
378.663330	-134.082489	25.262625	-20.917702
379.109985	-54.539982	64.939484	18.790070
379.556519	-39.637917	-14.440793	-43.265079
380.003052	-171.405899	64.939484	38.634033
380.449524	2.564149	52.543365	18.790070
380.895996	-4.881060	94.679955	-10.988217
381.342377	-79.385269	119.452377	-13.470466
381.788727	-14.809513	82.289848	26.232435
382.235046	57.133957	-14.440793	-6.024172
382.681274	-74.415413	47.584087	38.634033
383.127533	-29.705269	82.289848	-33.331814
383.573669	-61.992577	82.289848	93.170837
384.019836	-39.637917	67.418457	117.943878
384.465912	-64.476852	74.854614	-20.917702
384.911957	-12.327209	74.854614	6.384319
385.357971	-52.056133	69.897324	13.828109
385.803925	-19.774302	72.375954	46.073780
386.249847	-34.671452	136.787048	70.866272
386.695679	-2.399309	89.724167	58.471382
387.141541	-27.222471	50.063778	55.992039
387.587311	-17.291922	168.966843	36.153866
388.033051	24.894152	77.333176	41.114098
388.478729	0.082472	84.768105	-1.060408
388.924408	22.413546	77.333176	26.232435
389.369995	-34.671452	87.246254	43.594059
389.815552	27.374788	124.405594	43.594059
390.261078	-39.637917	94.679955	60.950619
390.706543	-7.363050	149.165848	18.790070
391.152008	-9.845144	164.017258	112.990005
391.597351	-54.539982	211.022583	46.073780
392.042725	-19.774302	223.386505	103.081306
392.487976	-4.881060	304.926147	78.302139
392.933289	-42.121376	267.875854	117.943878
393.378479	-79.385269	203.603104	75.823616
393.823639	32.335617	235.747818	73.345001
394.268768	-37.154564	329.614105	65.908653
394.713837	12.489680	351.825012	70.866272
395.158905	-22.256920	319.740051	194.676117
395.603851	-4.881060	344.422241	164.984711
396.048798	-49.572250	440.591217	105.558571
396.493683	29.855324	462.763519	184.780579
396.938568	-54.539982	393.757874	234.242188
397.383392	19.932701	455.373596	209.516357
397.828156	-42.121376	600.555481	174.883438
398.272888	-14.809513	644.784729	137.755066
398.717560	-14.809513	703.711548	177.357910
399.162201	-22.256920	637.415222	209.516357
399.606781	-12.327209	752.778320	251.544403
400.051361	47.215889	745.420471	416.910004
400.495819	-2.399309	870.395142	342.919220
400.940308	24.894152	885.083191	345.386993
401.384705	-47.088478	1112.360352	340.451477
401.829102	29.855324	1124.559082	340.451477
402.273438	49.695457	1219.641357	476.041046
402.717682	-34.671452	1187.960938	505.586273
403.161926	-57.024075	1372.979858	542.499084
403.606110	-29.705269	1375.411011	535.118225
404.050293	10.008420	1530.864014	618.719971
404.494385	29.855324	1707.802368	606.432129
404.938446	-24.739643	1828.769043	763.545959
405.382477	7.527056	1777.984863	775.805054
405.826447	-79.385269	2036.418823	773.353333
406.270386	-89.326378	2168.951416	915.406616
406.714233	-49.572250	2390.192383	866.455566
407.158081	-69.445992	2464.617188	949.652161
407.601868	24.894152	2723.430664	1027.865479
408.045624	-19.774302	2780.846924	1110.874146
408.489319	32.335617	3065.025391	1203.537109
408.933014	-89.326378	3326.977539	1395.810181
409.376617	5.045722	3450.571289	1451.697266
409.820190	-42.121376	3555.033936	1560.925049
410.263702	-27.222471	3758.906250	1674.846313
410.707184	-17.291922	4137.163086	1754.737061
411.150635	-4.881060	4321.084961	1856.302612
411.594025	0.082472	4544.680664	1914.284058
412.037384	12.489680	4852.281250	2071.116211
412.480682	-32.188305	4999.917480	2285.390869
412.923981	-44.604942	5364.690430	2369.512695
413.367126	-12.327209	5784.193359	2590.258789
413.810333	-76.900360	6081.623535	2733.937744
414.253479	-52.056133	6227.750000	2944.270508
414.696533	-81.870422	6644.310059	2937.107910
415.139587	-17.291922	7031.856934	3216.067871
415.582581	-44.604942	7227.489746	3494.247070
416.025543	-89.326378	7686.635742	3517.987549
416.468414	12.489680	8349.558594	3759.832520
416.911285	-22.256920	8604.708008	4083.793213
417.354065	-27.222471	9208.788086	4230.084473
417.796875	-57.024075	9430.686523	4677.193359
418.239594	-27.222471	9983.930664	4956.328613
418.682281	17.451754	10416.042969	5260.496582
419.124908	-2.399309	10889.501953	5484.610840
419.567505	10.008420	11424.090820	5896.723633
420.010071	17.451754	11907.987305	6281.960449
420.452545	-27.222471	12563.710938	6353.769531
420.895020	84.400002	12980.421875	6666.004395
421.337372	-129.107925	13687.819336	7228.388672
421.779785	29.855324	14192.728516	7664.612305
422.222107	-57.024075	14657.093750	7969.104980
422.664368	37.296165	15355.599609	8355.010742
423.106628	-116.673218	16219.262695	8914.778320
423.548798	5.045722	16862.785156	9014.660156
423.990967	-81.870422	17239.011719	9460.980469
424.433044	-24.739643	17910.250000	9795.367188
424.875092	-4.881060	18415.218750	10295.515625
425.317078	17.451754	19086.392578	10883.656250
425.759064	-32.188305	20046.728516	11500.871094
426.200989	-64.476852	20539.361328	11948.934570
426.642853	24.894152	21203.404297	12229.230469
427.084686	-27.222471	21809.005859	12815.152344
427.526459	-39.637917	22844.328125	13370.636719
427.968201	-24.739643	22921.363281	13712.958984
428.409912	-96.783302	24153.656250	14310.303711
428.851563	-34.671452	24940.347656	15035.943359
429.293121	-47.088478	25272.248047	15158.915039
429.734711	-9.845144	26289.320313	15959.443359
430.176239	-29.705269	26846.335938	16071.177734
430.617706	-54.539982	27599.423828	16539.771484
431.059113	-91.811958	28958.394531	17379.822266
431.500488	-96.783302	29501.435547	17935.150391
431.941833	37.296165	30467.416016	18461.978516
432.383087	-29.705269	30970.343750	19386.845703
432.824341	32.335617	31731.115234	19686.525391
433.265533	-47.088478	33097.753906	20814.070313
433.706726	-74.415413	33186.562500	21006.937500
434.147827	0.082472	34677.152344	21825.234375
434.588867	7.527056	35184.558594	22556.986328
435.029877	-79.385269	36285.273438	22990.466797
435.470825	-9.845144	37220.109375	23830.107422
435.911804	-32.188305	37841.066406	24441.625000
436.352661	-9.845144	38890.480469	25310.744141
436.793518	-71.930580	39276.382813	25408.156250
437.234283	-27.222471	40828.839844	26137.162109
437.675049	0.082472	41597.410156	27273.632813
438.115723	-42.121376	42187.351563	27653.636719
438.556396	5.045722	43411.652344	28187.271484
438.997040	-57.024075	44564.847656	29095.015625
439.437561	62.092308	44837.691406	29464.468750
439.878113	-42.121376	45993.957031	30848.832031
440.318573	-52.056133	46243.007813	31006.816406
440.759033	-19.774302	47131.519531	31402.816406
441.199341	-39.637917	48739.113281	32354.449219
441.639709	14.970702	49077.082031	32350.005859
442.079956	67.050247	49811.218750	33291.773438
442.520264	44.736080	50508.441406	34028.433594
442.960510	-39.637917	51787.054688	34711.261719
443.400604	-9.845144	51777.500000	35254.093750
443.840759	7.527056	52511.800781	35225.292969
444.280762	-59.508274	53291.222656	36403.511719
444.720825	-109.213730	53634.183594	37085.789063
445.160767	-59.508274	54543.894531	37495.875000
445.600739	-71.930580	55167.605469	37970.675781
446.040558	-34.671452	55424.179688	38608.546875
446.480438	22.413546	55390.554688	37937.378906
446.920258	-47.088478	56343.460938	39181.253906
447.359955	12.489680	55812.601563	39161.167969
447.799713	-106.727402	57845.601563	40666.910156
448.239319	-54.539982	56578.097656	39744.722656
448.678955	-12.327209	57227.625000	40750.546875
449.118500	-24.739643	58501.105469	41763.046875
449.558014	-24.739643	57639.199219	41484.121094
449.997498	-19.774302	58217.410156	41985.640625
450.436951	-37.154564	58120.785156	42192.867188
450.876343	64.571396	58171.148438	42772.367188
451.315674	-12.327209	58458.558594	42998.898438
451.754974	39.776283	58225.828125	42716.472656
452.194183	-37.154564	58654.910156	43466.906250
452.633392	5.045722	58049.601563	43661.132813
453.072510	-61.992577	57094.679688	43718.144531
453.511688	5.045722	56519.218750	43849.066406
453.950684	2.564149	56480.046875	43658.761719
454.389740	-64.476852	55778.398438	43658.761719
454.828735	2.564149	55312.269531	43846.683594
455.267639	14.970702	54877.335938	44004.324219
455.706543	12.489680	53717.281250	43233.503906
456.145325	2.564149	53703.410156	43715.765625
456.584137	-57.024075	52185.375000	43266.441406
457.022858	-14.809513	51682.222656	43012.941406
457.461578	-121.646828	50964.632813	42903.027344
457.900208	-22.256920	50149.832031	42846.988281
458.338867	-52.056133	49020.429688	42050.035156
458.777405	-79.385269	48427.753906	41955.765625
459.215912	-32.188305	47115.730469	41536.621094
459.654388	7.527056	46550.781250	41875.394531
460.092773	-14.809513	45809.722656	41249.464844
460.531189	-2.399309	44434.003906	40811.617188
460.969513	5.045722	43900.617188	40373.660156
461.407806	-27.222471	43317.320313	39885.937500
461.846008	-61.992577	42766.796875	40378.164063
462.284241	-124.133667	41387.457031	39034.015625
462.722351	-64.476852	40670.550781	38483.960938
463.160461	-42.121376	39950.125000	37915.179688
463.598541	-29.705269	40048.902344	38277.199219
464.036530	-14.809513	39692.324219	38135.003906
464.474518	-66.961372	38547.597656	37094.652344
464.912384	-54.539982	38394.144531	37475.917969
465.350281	42.256165	36991.855469	36671.507813
465.788086	-34.671452	36856.714844	35885.308594
466.225891	29.855324	36174.546875	35424.648438
466.663605	-52.056133	36258.699219	35347.125000
467.101318	-71.930580	35348.476563	34921.777344
467.539001	14.970702	34302.535156	33908.660156
467.976563	17.451754	34956.363281	34372.128906
468.414124	89.356232	33670.414063	33566.988281
468.851593	12.489680	33108.855469	32900.980469
469.289063	-24.739643	33037.800781	32892.097656
469.726440	-32.188305	32980.066406	32521.115234
470.163849	-24.739643	32126.871094	31638.580078
470.601135	14.970702	32131.316406	31736.429688
471.038422	-61.992577	31766.695313	31458.423828
471.475677	14.970702	31003.720703	30773.173828
471.912811	42.256165	30908.042969	30595.140625
472.350006	-47.088478	30790.105469	30655.228516
472.787048	-61.992577	30523.054688	30221.236328
473.224121	32.335617	29766.304688	29355.408203
473.661072	-59.508274	29617.175781	28754.548828
474.098053	-49.572250	29318.929688	28592.126953
474.534943	-27.222471	28791.503906	28374.111328
474.971802	2.564149	29034.058594	28173.927734
475.408630	-2.399309	28842.683594	28414.150391
475.845367	-22.256920	28237.558594	27495.833984
476.282104	-19.774302	28144.144531	27526.947266
476.718750	-71.930580	27732.791016	27333.621094
477.155426	-81.870422	27995.148438	27278.074219
477.591949	-84.355675	27668.328125	26820.562500
478.028503	29.855324	26917.388672	26574.175781
478.464966	12.489680	27594.978516	26618.560547
478.901428	-106.727402	27050.632813	25709.375000
479.337860	-44.604942	27066.175781	26026.302734
479.774170	19.932701	27354.970703	25875.570313
480.210510	-57.024075	26165.121094	24989.876953
480.646698	-24.739643	26702.039063	25383.802734
481.082947	-79.385269	26910.726563	24742.193359
481.519073	-29.705269	26236.087891	24837.267578
481.955200	27.374788	26249.396484	24136.857422
482.391266	-7.363050	26260.486328	24046.353516
482.827301	-42.121376	26315.937500	23918.357422
483.263306	-14.809513	26271.574219	23624.998047
483.699188	52.175060	26100.816406	23600.744141
484.135101	5.045722	25681.923828	23382.527344
484.570923	-81.870422	26145.164063	22801.177734
485.006744	-17.291922	25883.568359	23025.693359
485.442413	-29.705269	25876.919922	22376.681641
485.878174	5.045722	25974.447266	22418.453125
486.313782	-22.256920	25914.597656	22319.527344
486.749390	42.256165	25943.414063	22152.505859
487.184998	-52.056133	25941.197266	21763.757813
487.620453	-2.399309	26205.039063	21572.800781
488.055939	-71.930580	26083.080078	21230.576172
488.491333	-76.900360	25553.447266	20949.949219
488.926727	-14.809513	25994.398438	21074.898438
489.362030	-9.845144	25391.791016	20660.699219
489.797302	12.489680	25584.455078	20614.695313
490.232513	-22.256920	26149.597656	20551.169922
490.667755	-34.671452	25932.330078	20467.943359
491.102905	-12.327209	26091.945313	20599.361328
491.537964	-37.154564	26269.357422	20474.511719
491.973022	-22.256920	26098.599609	20089.171875
492.407990	-37.154564	26267.138672	20076.039063
492.842957	-54.539982	26493.421875	20601.550781
493.277832	-14.809513	26608.816406	20413.193359
493.712738	0.082472	26480.109375	20135.138672
494.147491	-24.739643	26690.937500	20108.871094
494.582275	-66.961372	26684.279297	20189.865234
495.017029	-4.881060	27183.902344	19863.751953
495.451660	-44.604942	27543.859375	20205.189453
495.886292	-22.256920	27917.322266	20122.003906
496.320831	7.527056	27421.630859	20010.376953
496.755402	-42.121376	27903.982422	20303.710938
497.189850	-7.363050	28250.900391	20176.730469
497.624298	-9.845144	28500.041016	20340.931641
498.058655	-57.024075	28722.527344	20378.158203
498.493042	17.451754	28775.927734	20502.986328
498.927368	-29.705269	29577.111328	20695.750000
499.361572	34.815945	29766.304688	20665.080078
499.795807	-47.088478	29574.886719	20816.261719
500.229919	2.564149	30186.980469	20597.169922
500.664063	5.045722	30100.175781	21070.513672
501.098083	-2.399309	30500.798828	21145.056641
501.532104	-37.154564	31079.369141	21498.191406
501.966064	-22.256920	30930.292969	21623.275391
502.399994	-37.154564	31319.642578	21351.205078
502.833893	-7.363050	31913.447266	21809.863281
503.267700	0.082472	32106.863281	21574.994141
503.701477	-24.739643	32611.339844	21851.583984
504.135193	-4.881060	32864.578125	21981.152344
504.568909	-66.961372	33117.738281	22361.292969
505.002502	0.082472	33295.343750	22528.394531
505.436127	-4.881060	33852.335938	22541.591797
505.869629	34.815945	33670.414063	22873.800781
506.303162	5.045722	33788.003906	22853.992188
506.736603	-96.783302	34402.296875	23201.867188
507.169983	-29.705269	34856.652344	23739.669922
507.603363	-66.961372	35273.164063	23660.277344
508.036621	-114.186569	35080.433594	24110.367188
508.469940	47.215889	36037.246094	24002.212891
508.903107	67.050247	36178.972656	24443.835938
509.336304	-9.845144	36156.832031	24395.234375
509.769379	-54.539982	36429.226563	24852.748047
510.202484	10.008420	36788.039063	25093.857422
510.635529	12.489680	37197.945313	24779.779297
511.068481	-52.056133	37943.167969	25913.248047
511.501434	-61.992577	37690.183594	25685.003906
511.934265	10.008420	38278.554688	26134.945313
512.367126	-84.355675	38289.667969	26560.861328
512.799927	-69.445992	38587.648438	26243.609375
513.232605	-84.355675	38429.718750	25868.921875
513.665344	39.776283	38249.664063	26487.632813
514.097961	-4.881060	39191.542969	27173.664063
514.530579	0.082472	39441.726563	27082.593750
514.963135	-7.363050	40017.460938	27380.281250
515.395691	57.133957	39945.636719	27618.074219
515.828064	-34.671452	40152.261719	27862.607422
516.260498	-86.841042	40672.808594	28084.968750
516.692871	-27.222471	40869.589844	28463.093750
517.125183	-32.188305	41053.187500	28391.906250
517.557373	-64.476852	41666.003906	28565.429688
517.989624	-12.327209	41455.851563	28776.798828
518.421753	-52.056133	41394.292969	29081.662109
518.853943	-126.620743	41647.703125	29168.458984
519.286072	-29.705269	41805.695313	29293.091797
519.718018	-39.637917	42427.679688	29439.986328
520.150024	17.451754	42088.265625	29495.626953
520.581909	-66.961372	42450.843750	29894.044922
521.013855	-57.024075	42353.628906	29667.013672
521.445679	-17.291922	43068.246094	30303.587891
521.877502	-27.222471	42545.906250	29974.175781
522.309204	-2.399309	42850.746094	30372.583984
522.740906	-7.363050	43030.757813	30150.013672
523.172546	-27.222471	43143.300781	30236.816406
523.604187	-52.056133	43416.378906	30595.140625
524.035767	-141.545197	43454.164063	30599.591797
524.467224	-109.213730	43033.097656	30824.353516
524.898682	29.855324	43061.214844	30675.255859
525.330078	24.894152	43256.109375	31144.759766
525.761475	-12.327209	43418.734375	31051.314453
526.192749	19.932701	43650.710938	31255.998047
526.624023	-22.256920	43619.871094	31213.728516
527.055237	-52.056133	43009.683594	31211.503906
527.486389	-59.508274	43574.835938	31296.041016
527.917542	-32.188305	44125.605469	31456.201172
528.348572	-17.291922	43717.210938	32074.390625
528.779663	-24.739643	43705.328125	31663.042969
529.210571	-57.024075	44120.804688	31478.443359
529.641541	-32.188305	43548.781250	31589.652344
530.072388	-7.363050	43981.855469	31776.455078
530.503235	-42.121376	44024.929688	31856.505859
530.934082	-39.637917	43807.628906	31865.402344
531.364746	-47.088478	43477.800781	31852.058594
531.795532	-22.256920	43907.781250	31983.240234
532.226135	49.695457	43879.140625	31469.546875
532.656738	-37.154564	43783.812500	32012.140625
533.087280	-64.476852	43848.132813	31778.681641
533.517822	-49.572250	43936.441406	32012.140625
533.948242	12.489680	43227.878906	31785.353516
534.378662	-54.539982	43695.824219	31638.580078
534.809082	-14.809513	43496.714844	31852.058594
535.239319	-7.363050	43475.433594	31671.937500
535.669617	37.296165	43581.941406	32203.318359
536.099792	-32.188305	43336.171875	32092.171875
536.529968	-49.572250	44039.296875	32138.855469
536.960083	-9.845144	43425.820313	32376.673828
537.390137	-71.930580	43551.144531	32221.097656
537.820190	-32.188305	43098.722656	32092.171875
538.250183	-9.845144	43183.226563	32061.048828
538.680115	-32.188305	43152.695313	32027.705078
539.109985	-136.569992	43418.734375	32196.648438
539.539795	-7.363050	42892.769531	31907.646484
539.969543	-79.385269	42853.078125	31932.105469
540.399292	-104.241318	42951.191406	32341.117188
540.828979	-4.881060	42815.750000	32009.921875
541.258606	-84.355675	42696.945313	32392.230469
541.688171	-14.809513	42766.796875	32147.748047
542.117737	-52.056133	42771.457031	31834.273438
542.547302	-29.705269	42634.152344	31605.220703
542.976685	-71.930580	43084.656250	32074.390625
543.406128	-54.539982	42381.386719	31912.093750
543.835388	-42.121376	42453.160156	31709.746094
544.264771	22.413546	42436.945313	32107.736328
544.693970	12.489680	42221.953125	31416.162109
545.123230	-32.188305	42279.671875	32141.078125
545.552307	2.564149	42587.691406	32029.927734
545.981506	-37.154564	41867.617188	31596.326172
546.410583	-86.841042	41947.972656	31876.517578
546.839539	19.932701	41695.746094	32029.927734
547.268555	-54.539982	41579.125000	31536.273438
547.697449	22.413546	41778.191406	31727.535156
548.126282	-61.992577	41510.617188	31843.166016
548.555054	24.894152	41355.558594	31580.755859
548.983887	-59.508274	40969.273438	31451.751953
549.412598	-91.811958	41540.296875	31687.505859
549.841309	-2.399309	40930.746094	31220.402344
550.269958	27.374788	40577.960938	31649.701172
550.698486	42.256165	40697.667969	31445.080078
551.127075	-76.900360	40713.484375	31396.144531
551.555481	-52.056133	41032.769531	31678.611328
551.983948	-32.188305	40458.410156	31144.759766
552.412292	-84.355675	40772.277344	31514.031250
552.840698	-24.739643	40440.371094	30775.398438
553.268860	22.413546	40483.207031	30960.089844
553.697205	-69.445992	40616.343750	30993.464844
554.125366	-27.222471	40179.238281	31387.246094
554.553467	-32.188305	40582.476563	30595.140625
554.981628	-14.809513	40359.265625	30935.611328
555.409607	-49.572250	40192.730469	31322.734375
555.837646	-71.930580	40605.054688	31229.302734
556.265564	-12.327209	40384.042969	31178.132813
556.693481	17.451754	40185.984375	31460.650391
557.121338	-71.930580	40370.523438	31640.806641
557.549133	-61.992577	40246.710938	31282.693359
557.976929	2.564149	40260.210938	31431.732422
558.404602	-49.572250	40226.464844	31371.671875
558.832275	2.564149	40003.992188	31458.423828
559.259888	-2.399309	40530.574219	31447.304688
559.687439	-54.539982	40334.488281	31476.220703
560.114929	-76.900360	39954.613281	31865.402344
560.542419	-42.121376	39705.765625	31731.980469
560.969788	-99.269203	39766.250000	31494.011719
561.397156	-57.024075	39522.226563	31193.707031
561.824524	-42.121376	39553.546875	30986.791016
562.251770	-42.121376	39746.082031	31146.984375
562.679016	-12.327209	39225.031250	31187.033203
563.106140	-61.992577	38783.546875	30835.482422
563.533264	24.894152	39144.679688	30750.921875
563.960327	-64.476852	38578.750000	30016.464844
564.387329	-54.539982	38538.703125	30234.591797
564.814331	-12.327209	38262.996094	30305.812500
565.241272	39.776283	37353.109375	30176.722656
565.668213	-47.088478	37506.093750	30103.273438
566.094971	-59.508274	37253.355469	29433.306641
566.521790	-76.900360	37304.335938	29673.691406
566.948425	-17.291922	36639.628906	29457.791016
567.375183	-49.572250	36726.015625	29199.615234
567.801819	-39.637917	36201.121094	28785.699219
568.228394	-34.671452	36088.179688	28309.601563
568.654846	14.970702	35738.281250	28463.093750
569.081421	-19.774302	35955.304688	28391.906250
569.507874	-27.222471	35381.699219	28200.615234
569.934265	-66.961372	35299.746094	27513.613281
570.360596	-27.222471	35293.097656	27940.427734
570.786865	-37.154564	34326.921875	27062.603516
571.213074	-37.154564	34444.417969	27626.964844
571.639282	-71.930580	34138.453125	27242.527344
572.065430	-59.508274	33834.589844	27053.720703
572.491516	59.613117	33830.156250	26984.875000
572.917603	-84.355675	33455.160156	26749.519531
573.343567	5.045722	33388.578125	26527.574219
573.769531	-71.930580	32966.738281	26044.037109
574.195435	-24.739643	32915.660156	26489.851563
574.621277	34.815945	32538.021484	26112.771484
575.047119	-14.809513	32077.964844	25915.464844
575.472839	-52.056133	32362.472656	25678.359375
575.898560	-94.297646	31835.626953	25312.957031
576.324158	-42.121376	31651.054688	25315.171875
576.749817	-64.476852	31281.822266	25255.404297
577.175293	-4.881060	31499.816406	25257.619141
577.600830	-37.154564	31090.494141	24762.091797
578.026306	-49.572250	30770.076172	24735.560547
578.451721	-52.056133	30331.652344	24375.353516
578.877136	-54.539982	30416.226563	24490.232422
579.302429	10.008420	30013.371094	24083.878906
579.727661	52.175060	29744.044922	24236.212891
580.152832	34.815945	29931.015625	24022.076172
580.578064	-32.188305	29459.146484	24150.103516
581.003113	-86.841042	29485.855469	23499.337891
581.428223	-47.088478	29234.353516	23331.845703
581.853271	-44.604942	29461.371094	23475.089844
582.278198	5.045722	28526.738281	23111.570313
582.703125	-4.881060	28715.851563	23129.187500
583.127930	-37.154564	28444.425781	22979.458984
583.552795	-79.385269	28448.875000	22933.230469
583.977539	67.050247	27552.748047	22732.964844
584.402283	-106.727402	27977.359375	22660.365234
584.826965	-57.024075	27679.443359	22642.765625
585.251587	-81.870422	27386.078125	22957.443359
585.676208	-99.269203	27530.525391	22513.001953
586.100647	-4.881060	27190.564453	21882.326172
586.525208	5.045722	27197.230469	22231.613281
586.949524	-14.809513	27106.156250	21717.658203
587.373962	-44.604942	26708.697266	21831.822266
587.798218	-12.327209	26493.421875	21750.587891
588.222534	17.451754	26344.775391	21469.669922
588.646729	-69.445992	26162.904297	21535.494141
589.070984	-29.705269	26045.386719	21015.707031
589.495117	-47.088478	25843.675781	20713.277344
589.919128	-37.154564	25475.933594	21026.666016
590.343201	-57.024075	25526.869141	20483.273438
590.767151	-59.508274	25225.767578	20722.042969
591.191101	2.564149	24354.611328	20437.285156
591.614990	-34.671452	25046.529297	20332.173828
592.038818	22.413546	24686.062500	20089.171875
592.462524	-42.121376	24902.748047	20343.123047
592.886292	-2.399309	24414.251953	20076.039063
593.310059	-2.399309	23873.367188	19605.582031
593.733582	34.815945	24074.185547	19671.210938
594.157227	-2.399309	23516.107422	19417.468750
594.580750	-34.671452	23655.005859	19415.281250
595.004272	-27.222471	23891.017578	19421.841797
595.427673	-96.783302	23357.425781	19161.593750
595.851074	-52.056133	23011.623047	19181.275391
596.274353	-59.508274	23253.875000	18934.193359
596.697632	-44.604942	22778.310547	18837.994141
597.120911	-49.572250	22391.210938	18641.236328
597.544067	0.082472	22668.302734	18658.724609
597.967224	-89.326378	22400.005859	18335.189453
598.390320	-42.121376	22063.765625	18247.751953
598.813354	27.374788	21947.349609	18389.841797
599.236328	-66.961372	21813.396484	17880.500000
599.659241	-61.992577	21859.507813	18068.500000
600.082153	-49.572250	21444.675781	18009.476563
600.505005	-81.870422	21392.025391	17683.742188
600.927795	-39.637917	21117.888672	17364.517578
601.350525	-81.870422	21543.414063	17504.458984
601.773254	-69.445992	20984.160156	17272.669922
602.195862	-2.399309	21082.808594	17023.337891
602.618408	-7.363050	20359.783203	16959.898438
603.040955	-71.930580	20556.884766	16745.488281
603.463440	32.335617	20423.287109	16682.029297
603.885925	-57.024075	19935.111328	16898.644531
604.308350	10.008420	20294.095703	16749.865234
604.730652	-139.057465	19648.478516	16314.282227
605.152893	19.932701	19510.664063	16369.020508
605.575195	-79.385269	19735.990234	15957.250977
605.997375	-59.508274	19388.177734	16163.176758
606.419495	-12.327209	19515.039063	16121.560547
606.841553	-44.604942	19086.392578	15635.037109
607.263672	-37.154564	19108.257813	15786.310547
607.685608	-9.845144	18826.208984	15933.148438
608.107605	-57.024075	18618.521484	15635.037109
608.529480	10.008420	18852.443359	15452.996094
608.951294	27.374788	18533.261719	15529.770508
609.373108	32.335617	18448.007813	15275.258789
609.794800	-52.056133	18133.224609	15229.166016
610.216553	-34.671452	18065.458984	15194.041992
610.638123	12.489680	18305.917969	15117.198242
611.059753	-34.671452	18179.130859	15161.111328
611.481262	-71.930580	18159.457031	15319.153320
611.902832	-32.188305	17901.503906	14629.363281
612.324219	-39.637917	17862.156250	14829.422852
612.745605	-74.415413	17892.761719	14728.310547
613.166931	-32.188305	17827.177734	14644.757813
613.588196	10.008420	17652.279297	14464.376953
614.009460	-54.539982	17394.275391	14525.982422
614.430664	34.815945	17400.835938	14415.963867
614.851807	10.008420	17422.701172	14279.478516
615.272827	-9.845144	17144.968750	14352.132813
615.693909	-81.870422	16843.093750	13688.681641
616.114929	32.335617	16595.824219	13968.822266
616.535889	-47.088478	16512.650391	13715.166016
616.956787	-12.327209	16549.859375	13710.750977
617.377563	-44.604942	16390.058594	13459.027344
617.798340	-91.811958	16144.798828	13443.561523
618.219055	-32.188305	16313.425781	13222.501953
618.639832	-32.188305	15921.335938	13222.501953
619.060364	47.215889	15730.650391	13010.072266
619.481018	-61.992577	15570.584961	12870.545898
619.901611	-7.363050	15528.913086	12697.666016
620.322083	-7.363050	15342.434570	12615.606445
620.742493	-66.961372	14909.870117	12635.570313
621.162842	-84.355675	14850.541016	12100.258789
621.583191	-94.297646	14720.856445	12113.604492
622.003418	-39.637917	14518.524414	12026.837891
622.423706	-17.291922	14280.818359	11917.763672
622.843872	-4.881060	14131.046875	11679.344727
623.264038	-12.327209	13780.500000	11715.016602
623.684143	27.374788	13930.479492	11552.202148
624.104126	-42.121376	13526.642578	11085.179688
624.524170	-69.445992	13329.984375	11190.320313
624.944031	47.215889	13383.033203	10939.661133
625.364014	24.894152	12869.680664	10921.741211
625.783752	-4.881060	13035.772461	10527.000000
626.203552	7.527056	12663.535156	10569.662109
626.623230	74.486450	12572.586914	10421.415039
627.042969	29.855324	12512.669922	10151.501953
627.462585	54.654564	12099.389648	10194.270508
627.882141	17.451754	11963.646484	10047.905273
628.301697	-64.476852	11921.345703	9937.473633
628.721130	-27.222471	11665.093750	9795.367188
629.140625	34.815945	11647.252930	9797.625000
629.559998	-49.572250	11595.952148	9406.681641
629.979309	19.932701	11164.844727	9535.607422
630.398560	-24.739643	11281.108398	9336.515625
630.817810	-54.539982	11207.334961	9196.078125
631.237000	2.564149	11073.116211	9030.542969
631.656067	-14.809513	10970.139648	9137.142578
632.075195	-42.121376	10481.201172	8969.267578
632.494202	-27.222471	10640.610352	8796.644531
632.913208	-22.256920	10577.764648	8685.233398
633.332092	-37.154564	10258.645508	8539.578125
633.750977	-19.774302	10143.868164	8580.559570
634.169739	-144.033020	10089.824219	8350.450195
634.588562	-109.213730	9891.495117	8323.083984
635.007263	-37.154564	9871.196289	8293.431641
635.425964	5.045722	9753.857422	7998.829590
635.844543	0.082472	9785.458984	8003.402344
636.263123	-29.705269	9582.193359	7753.972168
636.681641	10.008420	9602.532227	7756.263672
637.100037	-61.992577	9566.371094	7813.512207
637.518494	-9.845144	9104.510742	7845.561035
637.936829	-12.327209	9061.416992	7527.015137
638.355164	-44.604942	9027.387695	7437.500000
638.773438	32.335617	9152.126953	7304.259766
639.191650	-39.637917	8852.565430	7357.112793
639.609863	-57.024075	9045.538086	7246.785156
640.027893	5.045722	8657.044922	7184.685547
640.445984	-22.256920	8636.566406	7108.744629
640.863953	-42.121376	8449.853516	7069.604980
641.281921	0.082472	8374.639648	6986.683105
641.699829	-44.604942	8360.959961	6799.911621
642.117676	-27.222471	8308.507813	6751.444336
642.535461	-27.222471	8244.625977	6677.553711
642.953247	-47.088478	8251.470703	6511.140137
643.370972	-27.222471	8016.224121	6592.063477
643.788635	-71.930580	7963.637207	6645.212891
644.206177	-2.399309	7759.948242	6511.140137
644.623718	-47.088478	7826.354004	6270.374512
645.041260	-116.673218	7755.368164	6374.609375
645.458618	-59.508274	7475.629883	6321.344727
645.876099	-74.415413	7477.925293	6124.298828
646.293396	-59.508274	7353.917480	5912.992188
646.710693	47.215889	7349.321289	5961.788086
647.127991	-17.291922	7337.832520	5894.399414
647.545166	10.008420	7271.178223	5896.723633
647.962341	-19.774302	7011.125977	5785.103027
648.379333	-37.154564	7112.447266	5785.103027
648.796448	0.082472	6692.817871	5643.103027
649.213379	59.613117	6826.696777	5619.808105
649.630310	-91.811958	6845.151855	5463.618164
650.047180	-44.604942	6822.083008	5442.621582
650.463989	-19.774302	6653.550781	5419.288086
650.880859	17.451754	6623.514160	5559.221680
651.297546	-24.739643	6611.959961	5332.913574
651.714233	-81.870422	6332.020508	5181.021484
652.130859	-34.671452	6348.232422	5096.811523
652.547485	-81.870422	6220.795410	5096.811523
652.963928	-27.222471	6216.159668	5019.566406
653.380432	-49.572250	6037.519531	5089.792480
653.796814	-79.385269	6088.585938	4939.927246
654.213196	-4.881060	5946.940430	5075.750488
654.629578	-39.637917	5819.086426	4890.710449
655.045837	12.489680	5874.893555	4890.710449
655.462036	-17.291922	5821.411621	4778.135742
655.878174	-42.121376	5719.033203	4855.541992
656.294312	-61.992577	5665.482910	4491.506836
656.710327	-24.739643	5546.655762	4533.842773
657.126404	-111.700157	5569.963867	4585.564453
657.542358	-59.508274	5479.034180	4435.035645
657.958252	-14.809513	5565.302734	4446.802246
658.374084	-34.671452	5112.276367	4272.519531
658.789917	-42.121376	5152.043945	4399.726074
659.205688	7.527056	5247.899414	4324.361816
659.621338	32.335617	5201.150391	4347.918457
660.037048	-34.671452	5093.557617	4166.400879
660.452637	-32.188305	5135.670410	4149.884277
660.868164	-19.774302	5002.259766	4131.005371
661.283691	-34.671452	4859.315918	3986.944336
661.699158	-39.637917	4889.793945	4024.749512
662.114502	37.296165	4812.410156	3972.763916
662.529846	-19.774302	4737.321777	3916.023682
662.945129	-54.539982	4699.758789	3861.619629
663.360413	12.489680	4638.692871	3868.717285
663.775635	-7.363050	4601.097168	3752.727539
664.190674	-57.024075	4629.294922	3816.655762
664.605835	24.894152	4481.177734	3612.895508
665.020813	-9.845144	4514.109375	3691.129395
665.435791	-81.870422	4335.220215	3546.469238
665.850769	-22.256920	4252.739746	3584.432617
666.265625	-94.297646	4104.118652	3544.096191
666.680420	-91.811958	3995.472900	3375.460938
667.095215	17.451754	4181.992676	3434.870850
667.509949	-101.755203	4042.723633	3325.529053
667.924622	-69.445992	4092.314697	3344.553467
668.339233	-4.881060	3941.108887	3408.735107
668.753784	-52.056133	3941.108887	3313.636963
669.168335	62.092308	3879.621094	3194.637207
669.582825	-24.739643	3796.792480	3104.102295
669.997192	-7.363050	3709.160156	3166.056396
670.411560	34.815945	3747.064209	3170.820557
670.825867	7.527056	3742.326904	3013.483887
671.240173	-22.256920	3678.353516	2953.820068
671.654358	-4.881060	3649.908203	2877.396973
672.068481	-7.363050	3457.697021	2877.396973
672.482605	-24.739643	3600.110107	2848.722412
672.896667	-17.291922	3436.318115	2647.757080
673.310669	-42.121376	3386.416260	2800.912354
673.724609	2.564149	3269.882813	2681.281250
674.138489	14.970702	3307.949463	2652.546875
674.552307	7.527056	3200.850342	2741.115967
674.966064	-2.399309	3205.613037	2619.012451
675.379822	-42.121376	3172.271240	2539.918213
675.793579	22.413546	3172.271240	2621.407959
676.207153	-66.961372	3019.708496	2690.857422
676.620789	-24.739643	3031.635986	2419.947998
677.034241	-37.154564	2940.949463	2506.342529
677.447754	-69.445992	2969.596924	2287.795410
677.861206	-17.291922	3000.621094	2422.348877
678.274597	19.932701	2821.495361	2237.284912
678.687866	29.855324	2835.837646	2328.663574
679.101135	-34.671452	2890.797119	2403.139404
679.514404	-66.961372	2857.347412	2304.625732
679.927551	-42.121376	2737.787598	2338.276611
680.340698	-71.930580	2706.677490	2328.663574
680.753723	-86.841042	2675.556885	2222.848145
681.166748	-66.961372	2663.584717	2206.002197
681.579712	-59.508274	2632.449463	2078.347412
681.992615	0.082472	2534.185303	2001.180908
682.405457	-71.930580	2531.787109	2056.651367
682.818298	-104.241318	2558.161621	2080.757813
683.231018	47.215889	2344.546631	2059.062256
683.643738	-39.637917	2390.192383	2124.132080
684.056335	-47.088478	2351.755615	1998.768311
684.468994	76.965027	2318.109619	1969.811890
684.881531	22.413546	2296.473389	1904.623413
685.293945	-27.222471	2370.975830	1812.789795
685.706482	-59.508274	2308.493896	1996.355591
686.118774	-47.088478	2260.400879	1807.953613
686.531128	0.082472	2231.532471	1807.953613
686.943481	-14.809513	2245.967773	1740.217163
687.355713	-37.154564	2140.052490	1699.063965
687.767883	24.894152	2079.815430	1774.092407
688.179932	-54.539982	2147.278076	1810.371826
688.592041	-44.604942	2026.771851	1696.642578
689.004089	-19.774302	1973.695068	1628.812744
689.416016	0.082472	1976.108276	1609.422119
689.827881	-19.774302	1990.586670	1609.422119
690.239868	-74.415413	1976.108276	1653.044312
690.651611	24.894152	1838.438721	1539.091919
691.063354	-19.774302	1889.185791	1541.517944
691.475098	-76.900360	1947.144043	1526.959473
691.886719	-29.705269	1761.049927	1548.796265
692.298340	-29.705269	1896.432617	1606.997925
692.709900	-69.445992	1768.308228	1519.679321
693.121460	-22.256920	1724.748413	1432.262817
693.532837	62.092308	1676.321411	1405.532715
693.944214	-34.671452	1732.010132	1449.268188
694.355652	-14.809513	1751.371216	1444.409790
694.766846	-34.671452	1649.674316	1337.449951
695.178101	-86.841042	1712.644531	1305.819336
695.589294	-44.604942	1620.594360	1317.986450
696.000366	22.413546	1506.595093	1339.882202
696.411438	44.736080	1610.898682	1303.385620
696.822510	-17.291922	1564.828003	1279.044434
697.233459	-89.326378	1513.876465	1276.609863
697.644409	5.045722	1465.320435	1317.986450
698.055298	-37.154564	1530.864014	1186.476440
698.466064	14.970702	1394.859863	1266.871094
698.876831	-27.222471	1416.733887	1279.044434
699.287537	-2.399309	1475.033936	1205.973755
699.698181	5.045722	1389.998291	1193.788452
700.108826	10.008420	1363.253174	1225.466309
700.519348	12.489680	1358.389404	1147.465576
700.929810	-49.572250	1304.867920	1091.351196
701.340271	27.374788	1282.961670	1145.026733
701.750732	-4.881060	1368.116577	1149.904419
702.161011	-42.121376	1360.821289	959.433411
702.571350	-17.291922	1251.308105	986.325439
702.981567	34.815945	1278.092651	974.102905
703.391724	24.894152	1256.178955	1018.093628
703.801880	-2.399309	1195.272827	954.542786
704.211914	17.451754	1119.679932	1010.763611
704.621948	-91.811958	1300.000366	1044.963379
705.031921	-29.705269	1285.395996	991.213562
705.441895	-29.705269	1078.192505	920.299622
705.851746	-17.291922	1148.950928	1008.320129
706.261536	12.489680	1190.398193	934.977539
706.671265	-12.327209	1156.266968	905.619019
707.081055	-34.671452	1107.480103	1054.731567
707.490662	14.970702	1092.837769	864.007019
707.900330	-9.845144	1102.599731	939.869202
708.309814	-14.809513	1134.316895	856.661072
708.719299	-89.326378	1112.360352	716.940979
709.128784	-69.445992	1083.074585	827.269897
709.538147	-39.637917	1019.581604	807.668762
709.947510	-61.992577	1063.544189	819.920044
710.356750	-42.121376	997.590149	790.513184
710.766052	-52.056133	926.682617	895.830261
711.175171	-69.445992	904.662292	736.567810
711.584290	-47.088478	941.358887	815.019897
711.993347	-37.154564	1002.477783	797.866211
712.402405	-109.213730	987.814087	768.449951
712.811401	-32.188305	921.789734	660.481384
713.220276	-9.845144	956.032104	650.657471
713.629150	-74.415413	853.255127	707.125183
714.037964	-101.755203	948.696045	805.218140
714.446777	-22.256920	865.498352	736.567810
714.855408	34.815945	880.187378	648.201294
715.264099	39.776283	948.696045	680.124878
715.672668	39.776283	725.795898	709.579285
716.081177	-24.739643	755.230530	621.177124
716.489746	-7.363050	774.846558	685.034790
716.898132	-64.476852	681.620056	638.375549
717.306519	-12.327209	701.257507	655.569580
717.714844	-59.508274	762.587280	626.091492
718.123108	-61.992577	789.554932	586.767090
718.531372	24.894152	718.435425	591.683899
718.939514	-14.809513	792.006042	562.177307
719.347595	-17.291922	792.006042	520.353821
719.755676	-74.415413	818.962402	552.338989
720.163696	-81.870422	679.165100	608.889893
720.571716	-66.961372	659.521301	572.014282
720.979614	-74.415413	723.342468	562.177307
721.387451	-32.188305	686.529968	488.353149
721.795227	-32.188305	666.888306	544.959229
722.202942	10.008420	684.075012	611.347595
722.610718	-39.637917	615.301819	530.197083
723.018311	-47.088478	644.784729	559.717957
723.425903	-44.604942	725.795898	476.041046
723.833374	19.932701	718.435425	461.263306
724.240906	2.564149	605.471252	530.197083
724.648376	-7.363050	595.639343	510.509247
725.055725	-2.399309	600.555481	402.118652
725.463013	-76.900360	661.977051	495.739319
725.870300	-54.539982	531.695740	448.946045
726.277466	-7.363050	573.512024	441.554565
726.684631	-64.476852	512.008362	429.233398
727.091797	-12.327209	568.593872	461.263306
727.498779	-4.881060	556.296753	515.431763
727.905823	-121.646828	497.238739	411.979889
728.312805	-37.154564	470.152588	453.873169
728.719666	-59.508274	553.837158	451.409729
729.126526	24.894152	430.734375	429.233398
729.533264	22.413546	467.689758	357.724335
729.940063	-91.811958	553.837158	490.815338
730.346680	-2.399309	430.734375	407.049530
730.753357	-2.399309	497.238739	429.233398
731.159851	14.970702	482.465942	414.445007
731.566406	14.970702	568.593872	384.857849
731.972900	-29.705269	475.078247	392.256012
732.379272	-69.445992	499.700592	325.642303
732.785645	-37.154564	374.028229	310.829773
733.191895	-22.256920	480.003448	377.458923
733.598206	-44.604942	415.946350	357.724335
734.004333	-34.671452	516.930725	384.857849
734.410522	-27.222471	543.997437	471.115448
734.816528	-17.291922	457.837036	333.047394
735.222656	-2.399309	440.591217	379.925354
735.628662	-32.188305	435.663055	286.134369
736.034546	-89.326378	383.893799	404.584137
736.440430	-64.476852	341.954559	407.049530
736.846252	-64.476852	374.028229	434.162201
737.252014	27.374788	381.427521	276.253448
737.657715	-106.727402	465.226685	320.705200
738.063354	-136.569992	403.620270	207.043182
738.468933	-52.056133	359.227051	362.658539
738.874512	-71.930580	391.291962	300.952759
739.280029	-9.845144	450.446564	273.783112
739.685486	-136.569992	411.016144	372.525909
740.090881	-69.445992	521.852722	291.074188
740.496216	-34.671452	393.757874	261.429230
740.901550	-27.222471	364.161102	263.900238
741.306702	-61.992577	396.223541	281.194183
741.711914	-22.256920	393.757874	251.544403
742.117004	-94.297646	287.638763	296.013733
742.522095	-49.572250	396.223541	229.297867
742.927124	-57.024075	381.427521	407.049530
743.332031	44.736080	371.561554	271.312500
743.737000	-49.572250	396.223541	283.664276
744.141785	7.527056	332.082428	300.952759
744.546631	-32.188305	324.677368	293.544006
744.951355	-57.024075	386.359863	246.601471
745.356079	-24.739643	383.893799	300.952759
745.760620	-2.399309	299.987427	263.900238
746.165283	-106.727402	322.208740	283.664276
746.569824	-81.870422	314.802521	241.657990
746.974243	-9.845144	319.740051	246.601471
747.378723	17.451754	262.934204	293.544006
747.783020	-81.870422	282.698700	192.202347
748.187378	22.413546	257.992188	216.935135
748.591614	-24.739643	332.082428	254.015793
748.995850	-34.671452	265.405151	263.900238
749.399963	37.296165	290.108704	224.353027
749.804077	-7.363050	369.094788	199.623215
750.208130	-52.056133	292.578430	155.084381
750.612122	-52.056133	250.578186	199.623215
751.016052	32.335617	334.550507	204.570053
751.419922	-69.445992	228.331299	239.186249
751.823792	-32.188305	304.926147	164.984711
752.227478	-19.774302	272.817230	207.043182
752.631226	-17.291922	260.463165	177.357910
753.034851	-7.363050	223.386505	137.755066
753.438477	10.008420	243.163452	221.880585
753.842102	0.082472	203.603104	164.984711
754.245544	19.932701	176.390533	184.780579
754.648987	-84.355675	213.495590	90.692932
755.052368	-57.024075	188.761429	145.182556
755.455750	-91.811958	215.968384	157.559631
755.859009	-139.057465	176.390533	147.658096
756.262268	-4.881060	215.968384	160.034805
756.665405	-69.445992	257.992188	192.202347
757.068542	14.970702	183.813309	160.034805
757.471680	-9.845144	211.022583	179.832275
757.874634	-39.637917	257.992188	189.728470
758.277588	-47.088478	215.968384	115.466995
758.680420	-59.508274	176.390533	117.943878
759.083374	-19.774302	186.287415	174.883438
759.486084	-22.256920	257.992188	100.603813
759.888916	19.932701	154.116776	157.559631
760.291504	22.413546	82.289848	58.471382
760.694214	-39.637917	129.358536	174.883438
761.096802	-17.291922	186.287415	150.133667
761.499268	27.374788	233.275696	164.984711
761.901733	-76.900360	223.386505	189.728470
762.304199	-22.256920	168.966843	152.609131
762.706543	-57.024075	134.310944	88.214928
763.108826	-59.508274	149.165848	169.934341
763.511108	-59.508274	154.116776	155.084381
763.913208	37.296165	131.834717	150.133667
764.315369	-47.088478	186.287415	-6.024172
764.717529	-29.705269	255.520950	155.084381
765.119568	-84.355675	183.813309	26.232435
765.521545	49.695457	203.603104	23.751751
765.923462	-14.809513	139.262939	58.471382
766.325317	-19.774302	116.975555	142.706787
766.727112	-29.705269	171.441559	162.509872
767.128845	-42.121376	116.975555	122.897217
767.530518	0.082472	151.641357	23.751751
767.932251	-54.539982	161.542252	78.302139
768.333862	-22.256920	109.544609	90.692932
768.735413	62.092308	173.916031	18.790070
769.136841	24.894152	186.287415	135.278976
769.538269	0.082472	119.452377	73.345001
769.939636	-24.739643	116.975555	88.214928
770.341003	-39.637917	124.405594	174.883438
770.742249	-39.637917	176.390533	23.751751
771.143433	0.082472	154.116776	70.866272
771.544617	-17.291922	57.502094	70.866272
771.945740	-32.188305	121.929108	93.170837
772.346802	-9.845144	121.929108	108.035858
772.747803	-84.355675	50.063778	75.823616
773.148682	5.045722	15.339235	85.736954
773.549622	-64.476852	114.498634	192.202347
773.950439	-34.671452	50.063778	48.553535
774.351196	-29.705269	99.635208	100.603813
774.751892	-61.992577	74.854614	142.706787
775.152588	39.776283	27.743246	58.471382
775.553162	19.932701	188.761429	120.420670
775.953735	-42.121376	87.246254	-6.024172
776.354309	-61.992577	116.975555	73.345001
776.754639	-4.881060	45.104427	70.866272
777.155090	-39.637917	99.635208	100.603813
777.555420	-34.671452	126.882118	38.634033
777.955750	-7.363050	94.679955	85.736954
778.355896	-69.445992	144.214661	48.553535
778.756104	-49.572250	99.635208	83.258736
779.156189	5.045722	112.021736	51.033184
779.556274	-57.024075	139.262939	110.513054
779.956299	37.296165	121.929108	51.033184
780.356201	-14.809513	47.584087	-53.200027
780.756165	-19.774302	69.897324	70.866272
781.156006	-49.572250	107.067375	60.950619
781.555786	29.855324	40.144531	28.712881
781.955505	-49.572250	164.017258	26.232435
782.355225	-14.809513	114.498634	43.594059
782.754761	-34.671452	121.929108	-3.542238
783.154358	2.564149	116.975555	68.387581
783.553894	-144.033020	139.262939	53.512596
783.953369	-22.256920	27.743246	41.114098
784.352783	-91.811958	74.854614	65.908653
784.752075	-74.415413	20.301071	51.033184
785.151367	-49.572250	77.333176	-20.917702
785.550598	-69.445992	35.184357	-40.781708
785.949768	-7.363050	55.022717	43.594059
786.348877	-57.024075	37.664425	23.751751
786.747986	-42.121376	59.981377	13.828109
787.147034	-24.739643	-11.958639	132.802811
787.545959	-39.637917	50.063778	63.429619
787.944885	72.007912	20.301071	68.387581
788.343750	-47.088478	7.895637	60.950619
788.742493	34.815945	12.858095	38.634033
789.141235	-74.415413	116.975555	53.512596
789.539917	72.007912	102.112740	46.073780
789.938538	-12.327209	-24.370859	-20.917702
790.337158	-34.671452	134.310944	1.421317
790.735718	-24.739643	112.021736	-10.988217
791.134094	62.092308	62.460552	80.780418
791.532532	-66.961372	32.704044	28.712881
791.930847	17.451754	64.939484	16.309210
792.329224	12.489680	52.543365	75.823616
792.727417	-7.363050	82.289848	-40.781708
793.125610	-44.604942	37.664425	48.553535
793.523682	24.894152	50.063778	58.471382
793.921753	22.413546	45.104427	68.387581
794.319824	-24.739643	156.591934	75.823616
794.717773	-32.188305	20.301071	-95.442375
795.115723	-24.739643	55.022717	28.712881
795.513550	-64.476852	62.460552	63.429619
795.911377	10.008420	20.301071	-25.883005
796.309082	-39.637917	112.021736	18.790070
796.706787	39.776283	112.021736	46.073780
797.104370	-22.256920	50.063778	38.634033
797.501953	10.008420	0.451100	53.512596
797.899536	-54.539982	84.768105	21.270964
798.296936	-84.355675	22.781900	-68.105553
798.694397	-2.399309	15.339235	-20.917702
799.091736	-14.809513	55.022717	-48.232410
799.489014	-114.186569	22.781900	8.865731
799.886230	-22.256920	47.584087	26.232435
800.283447	-17.291922	37.664425	53.512596
800.680542	-89.326378	59.981377	-6.024172
801.077637	-29.705269	-21.888287	-8.506075
801.474670	-42.121376	25.262625	26.232435
801.871643	22.413546	-101.385933	51.033184
802.268555	-54.539982	57.502094	-13.470466
802.665405	-32.188305	5.414184	18.790070
803.062256	-59.508274	64.939484	18.790070
803.458923	-2.399309	2.932626	63.429619
803.855652	-52.056133	82.289848	-15.952682
804.252258	0.082472	32.704044	58.471382
804.648804	-2.399309	45.104427	1.421317
805.045410	-32.188305	12.858095	-6.024172
805.441833	54.654564	35.184357	13.828109
805.838257	-14.809513	59.981377	43.594059
806.234619	-2.399309	82.289848	38.634033
806.630859	-37.154564	87.246254	58.471382
807.027100	2.564149	50.063778	-13.470466
807.423279	-84.355675	27.743246	41.114098
807.819458	2.564149	27.743246	-15.952682
808.215515	27.374788	-21.888287	13.828109
808.611572	-79.385269	-11.958639	-23.400368
809.007507	-17.291922	42.624531	6.384319
809.403381	17.451754	72.375954	38.634033
809.799194	47.215889	69.897324	21.270964
810.195068	29.855324	72.375954	26.232435
810.590759	-37.154564	-4.512537	-28.365881
810.986450	-79.385269	5.414184	13.828109
811.382080	-19.774302	-66.592316	-20.917702
811.777649	-9.845144	17.820272	43.594059
812.173157	-89.326378	10.376986	-13.470466
812.568665	-4.881060	-19.405684	93.170837
812.964050	32.335617	2.932626	38.634033
813.359375	-89.326378	-9.476456	-10.988217
813.754639	-32.188305	-19.405684	110.513054
814.149841	-19.774302	5.414184	21.270964
814.545105	-4.881060	-9.476456	3.902802
814.940186	-24.739643	35.184357	-30.848862
815.335266	-37.154564	-34.302605	18.790070
815.730347	-71.930580	74.854614	-48.232410
816.125244	-22.256920	25.262625	60.950619
816.520203	19.932701	57.502094	33.673733
816.914978	27.374788	-26.853672	48.553535
817.309753	0.082472	17.820272	-83.015038
817.704468	-32.188305	59.981377	3.902802
818.099182	-4.881060	12.858095	6.384319
818.493774	-14.809513	47.584087	31.193357
818.888367	44.736080	-6.994376	-40.781708
819.282898	22.413546	-2.030666	-8.506075
819.677307	-49.572250	62.460552	70.866272
820.071716	-4.881060	-21.888287	26.232435
820.466003	-94.297646	-29.336588	-80.529839
820.860291	-96.783302	-26.853672	31.193357
821.254517	-74.415413	-26.853672	18.790070
821.648743	-71.930580	-74.046318	-8.506075
822.042786	-9.845144	-21.888287	46.073780
822.436890	-32.188305	-16.923185	-65.621124
822.830872	91.834053	2.932626	-3.542238
823.224792	-96.783302	-2.030666	23.751751
823.618774	-34.671452	-24.370859	11.346905
824.012512	-12.327209	27.743246	-28.365881
824.406311	52.175060	27.743246	-28.365881
824.799988	0.082472	37.664425	33.673733
825.193665	-22.256920	0.451100	8.865731
825.587280	-9.845144	62.460552	-13.470466
825.980835	17.451754	82.289848	31.193357
826.374329	-44.604942	22.781900	48.553535
826.767761	-74.415413	-4.512537	1.421317
827.161194	-96.783302	-46.719688	-60.652317
827.554443	-79.385269	25.262625	23.751751
827.947754	-74.415413	-74.046318	-18.435139
828.340942	-66.961372	-11.958639	1.421317
828.734131	29.855324	-29.336588	-15.952682
829.127136	-52.056133	-31.819477	73.345001
829.520264	-39.637917	25.262625	-25.883005
829.913208	-64.476852	-19.405684	-38.298302
830.306152	-39.637917	-21.888287	-20.917702
830.699097	-27.222471	-9.476456	31.193357
831.091797	24.894152	7.895637	-25.883005
831.484619	-64.476852	-59.139275	-20.917702
831.877319	-69.445992	-9.476456	36.153866
832.270020	34.815945	-2.030666	-13.470466
832.662537	104.222191	37.664425	-13.470466
833.055054	-61.992577	17.820272	-8.506075
833.447510	-52.056133	47.584087	-3.542238
833.839966	0.082472	27.743246	8.865731
834.232361	-34.671452	20.301071	51.033184
834.624634	5.045722	-9.476456	60.950619
835.016907	-19.774302	-76.531242	16.309210
835.409058	10.008420	-2.030666	-8.506075
835.801208	-22.256920	-51.687176	6.384319
836.193298	-29.705269	30.223631	13.828109
836.585327	17.451754	-24.370859	100.603813
836.977295	-34.671452	-46.719688	-20.917702
837.369202	-44.604942	-64.107956	23.751751
837.761047	-79.385269	-9.476456	-13.470466
838.152832	-74.415413	-36.785839	6.384319
838.544617	-39.637917	-14.440793	-65.621124
838.936218	-32.188305	37.664425	21.270964
839.327942	-69.445992	30.223631	-53.200027
839.719421	-54.539982	-41.752483	-38.298302
840.111023	-81.870422	-56.655224	-85.500214
840.502380	-34.671452	32.704044	-6.024172
840.893860	-64.476852	-36.785839	33.673733
841.285217	-29.705269	17.820272	23.751751
841.676453	-64.476852	79.811501	-60.652317
842.067749	-24.739643	-64.107956	-28.365881
842.458862	-71.930580	-14.440793	-137.715561
842.849976	-101.755203	-19.405684	-3.542238
843.241028	-4.881060	-51.687176	-33.331814
843.632019	-54.539982	-24.370859	38.634033
844.022949	-61.992577	5.414184	-30.848862
844.413879	-12.327209	50.063778	26.232435
844.804749	2.564149	22.781900	46.073780
845.195496	-24.739643	-21.888287	16.309210
845.586182	-74.415413	-71.561638	55.992039
845.976807	-64.476852	-16.923185	-92.956642
846.367432	-2.399309	-6.994376	-45.748692
846.757996	19.932701	17.820272	-85.500214
847.148499	-22.256920	35.184357	-20.917702
847.538879	54.654564	-61.623558	63.429619
847.929260	-49.572250	10.376986	23.751751
848.319641	-32.188305	-66.592316	43.594059
848.709839	-17.291922	-24.370859	-6.024172
849.100098	-22.256920	10.376986	-70.590225
849.490234	14.970702	12.858095	-90.471146
849.880310	-4.881060	-14.440793	-38.298302
850.270325	-39.637917	-61.623558	-40.781708
850.660339	-52.056133	22.781900	-50.716099
851.050171	-39.637917	2.932626	26.232435
851.440125	-91.811958	-91.442757	-45.748692
851.829895	27.374788	52.543365	-70.590225
852.219604	-32.188305	-26.853672	-48.232410
852.609314	-12.327209	5.414184	-33.331814
852.998901	-89.326378	7.895637	-15.952682
853.388550	-101.755203	20.301071	-100.414162
853.778015	-27.222471	-88.957329	36.153866
854.167480	-52.056133	-4.512537	-6.024172
854.556885	-27.222471	77.333176	-23.400368
854.946228	-57.024075	40.144531	-48.232410
855.335571	5.045722	-16.923185	-25.883005
855.724731	-66.961372	-51.687176	1.421317
856.113953	54.654564	0.451100	-58.168068
856.503052	-57.024075	50.063778	6.384319
856.892151	-42.121376	32.704044	68.387581
857.281067	-34.671452	-11.958639	-50.716099
857.670105	-69.445992	22.781900	-1.060408
858.058960	2.564149	-46.719688	-40.781708
858.447754	-106.727402	-51.687176	-10.988217
858.836609	-47.088478	35.184357	-25.883005
859.225281	-14.809513	-64.107956	51.033184
859.613892	-54.539982	27.743246	-30.848862
860.002502	2.564149	-34.302605	18.790070
860.391052	-7.363050	64.939484	-6.024172
860.779541	-37.154564	92.202118	-15.952682
861.167969	-19.774302	-14.440793	58.471382
861.556335	27.374788	12.858095	1.421317
861.944702	-17.291922	-91.442757	58.471382
862.332947	-4.881060	-51.687176	-25.883005
862.721069	17.451754	7.895637	-63.136669
863.109253	24.894152	2.932626	-50.716099
863.497314	-47.088478	-36.785839	1.421317
863.885376	-42.121376	-24.370859	-15.952682
864.273315	-74.415413	12.858095	-15.952682
864.661255	-32.188305	50.063778	-13.470466
865.049072	-12.327209	-31.819477	-73.075005
865.436890	-2.399309	-54.171150	-65.621124
865.824707	-2.399309	79.811501	-53.200027
866.212280	22.413546	77.333176	-60.652317
866.599915	-7.363050	22.781900	-53.200027
866.987488	-49.572250	-29.336588	-1.060408
867.375061	-52.056133	-16.923185	-68.105553
867.762451	-44.604942	-26.853672	-40.781708
868.149841	-17.291922	-76.531242	21.270964
868.537170	-34.671452	-9.476456	-87.985626
868.924438	-19.774302	-11.958639	-87.985626
869.311707	42.256165	-49.203312	3.902802
869.698853	24.894152	-24.370859	-18.435139
870.085938	-34.671452	-19.405684	-80.529839
870.472961	39.776283	-2.030666	-28.365881
870.859985	-9.845144	15.339235	-33.331814
871.246887	-39.637917	50.063778	18.790070
871.633789	-64.476852	57.502094	-13.470466
872.020569	0.082472	-59.139275	6.384319
872.407349	-44.604942	-19.405684	-50.716099
872.794067	-86.841042	-11.958639	-10.988217
873.180725	-32.188305	-39.269176	-25.883005
873.567322	-66.961372	-9.476456	1.421317
873.953796	-37.154564	27.743246	-28.365881
874.340332	111.653801	-46.719688	26.232435
874.726624	54.654564	-24.370859	-10.988217
875.113037	-57.024075	-46.719688	-48.232410
875.499329	-64.476852	-19.405684	-13.470466
875.885559	22.413546	-41.752483	3.902802
876.271729	-109.213730	-29.336588	-18.435139
876.657898	37.296165	-31.819477	73.345001
877.044006	-17.291922	-76.531242	-38.298302
877.429932	14.970702	-76.531242	-1.060408
877.815918	-12.327209	69.897324	-90.471146
878.201782	-89.326378	-56.655224	-43.265079
878.587585	-54.539982	-101.385933	-1.060408
878.973389	-54.539982	45.104427	-1.060408
879.359070	-4.881060	-26.853672	-15.952682
879.744751	7.527056	12.858095	-10.988217
880.130310	-74.415413	-39.269176	36.153866
880.515930	-32.188305	-44.236034	-23.400368
880.901367	-69.445992	-26.853672	-23.400368
881.286804	2.564149	-66.592316	-28.365881
881.672180	-57.024075	25.262625	23.751751
882.057434	-52.056133	-54.171150	-87.985626
882.442749	-4.881060	2.932626	-55.684063
882.827942	-76.900360	-41.752483	33.673733
883.213013	-91.811958	55.022717	-63.136669
883.598145	-86.841042	57.502094	6.384319
883.983154	-47.088478	-66.592316	-15.952682
884.368042	19.932701	15.339235	26.232435
884.753052	-111.700157	72.375954	-58.168068
885.137817	-47.088478	0.451100	-13.470466
885.522644	-7.363050	2.932626	-1.060408
885.907349	-29.705269	-44.236034	-87.985626
886.292053	22.413546	-44.236034	-33.331814
886.676636	-54.539982	-41.752483	3.902802
887.061157	34.815945	-69.076927	-1.060408
887.445740	0.082472	-21.888287	-13.470466
887.830078	-29.705269	-29.336588	-3.542238
888.214539	7.527056	-39.269176	-35.815006
888.598816	29.855324	40.144531	-33.331814
888.983093	-7.363050	-16.923185	-18.435139
889.367249	-52.056133	22.781900	-28.365881
889.751465	-86.841042	12.858095	-70.590225
890.135498	59.613117	-14.440793	-30.848862
890.519531	-47.088478	-64.107956	6.384319
890.903503	-2.399309	27.743246	-38.298302
891.287415	-24.739643	-14.440793	1.421317
891.671326	-71.930580	-51.687176	-40.781708
892.055054	29.855324	-36.785839	-35.815006
892.438843	-22.256920	2.932626	-15.952682
892.822510	42.256165	2.932626	23.751751
893.206116	-59.508274	-49.203312	-60.652317
893.589661	-66.961372	10.376986	-70.590225
893.973206	-61.992577	-69.076927	-18.435139
894.356628	-57.024075	-2.030666	-58.168068
894.739990	-54.539982	-29.336588	-58.168068
895.123352	-34.671452	-2.030666	-35.815006
895.506592	-22.256920	-4.512537	23.751751
895.889832	29.855324	22.781900	-112.845238
896.272949	-17.291922	109.544609	-40.781708
896.656067	-94.297646	-6.994376	36.153866
897.039063	-12.327209	0.451100	-25.883005
897.422058	-66.961372	-123.764389	-35.815006
897.804993	10.008420	55.022717	8.865731
898.187866	-12.327209	0.451100	-53.200027
898.570618	44.736080	47.584087	-100.414162
898.953369	-39.637917	-19.405684	-13.470466
899.336121	10.008420	-29.336588	-6.024172
899.718689	-71.930580	-19.405684	31.193357
900.101257	-86.841042	-44.236034	-18.435139
900.483704	-81.870422	-83.986519	-18.435139
900.866211	-69.445992	-24.370859	-33.331814
901.248596	7.527056	-34.302605	-65.621124
901.630920	-64.476852	-14.440793	-30.848862
902.013184	-12.327209	-4.512537	8.865731
902.395386	-52.056133	2.932626	-3.542238
902.777588	-9.845144	-41.752483	3.902802
903.159668	10.008420	-56.655224	-1.060408
903.541687	-111.700157	30.223631	-18.435139
903.923645	-94.297646	-29.336588	36.153866
904.305603	-47.088478	-59.139275	-15.952682
904.687500	-12.327209	-21.888287	38.634033
905.069275	29.855324	-54.171150	18.790070
905.451050	2.564149	-66.592316	-13.470466
905.832642	0.082472	-4.512537	-95.442375
906.214294	-14.809513	-41.752483	53.512596
906.595825	-19.774302	-24.370859	-48.232410
906.977417	-49.572250	-93.928421	-87.985626
907.358826	-61.992577	12.858095	-15.952682
907.740234	17.451754	10.376986	3.902802
908.121582	-44.604942	-29.336588	-1.060408
908.502869	-47.088478	-24.370859	-10.988217
908.884033	-52.056133	-39.269176	28.712881
909.265198	39.776283	27.743246	-6.024172
909.646301	5.045722	-64.107956	28.712881
910.027344	59.613117	-24.370859	11.346905
910.408325	-121.646828	-2.030666	-35.815006
910.789246	-42.121376	-19.405684	-43.265079
911.170105	-37.154564	42.624531	21.270964
911.550903	-49.572250	-14.440793	-23.400368
911.931641	7.527056	-101.385933	-48.232410
912.312317	-22.256920	-21.888287	18.790070
912.692932	17.451754	-83.986519	-85.500214
913.073547	-17.291922	7.895637	13.828109
913.453979	-14.809513	10.376986	51.033184
913.834473	12.489680	-79.016273	-85.500214
914.214783	24.894152	-46.719688	-25.883005
914.595154	-4.881060	-64.107956	18.790070
914.975464	-99.269203	-6.994376	-85.500214
915.355652	-24.739643	-6.994376	-35.815006
915.735840	-52.056133	-39.269176	-97.928215
916.115845	-17.291922	-19.405684	-50.716099
916.495972	10.008420	-71.561638	-63.136669
916.875854	22.413546	-4.512537	-23.400368
917.255859	-27.222471	7.895637	31.193357
917.635620	-44.604942	-4.512537	-6.024172
918.015503	64.571396	20.301071	-48.232410
918.395203	0.082472	-11.958639	-15.952682
918.774902	49.695457	-4.512537	-58.168068
919.154480	34.815945	-46.719688	3.902802
919.534058	67.050247	-83.986519	-23.400368
919.913574	-54.539982	-51.687176	-70.590225
920.292969	-17.291922	-31.819477	-20.917702
920.672363	0.082472	57.502094	-20.917702
921.051636	-32.188305	-71.561638	-48.232410
921.430969	22.413546	-98.900085	-107.872513
921.810181	10.008420	42.624531	-63.136669
922.189331	-86.841042	15.339235	-3.542238
922.568420	29.855324	12.858095	-6.024172
922.947388	-89.326378	-9.476456	-43.265079
923.326416	-64.476852	12.858095	-45.748692
923.705261	-4.881060	42.624531	-13.470466
924.084106	19.932701	-9.476456	-28.365881
924.462891	-61.992577	0.451100	-60.652317
924.841675	34.815945	-24.370859	8.865731
925.220337	-91.811958	2.932626	-58.168068
925.598938	-2.399309	22.781900	-95.442375
925.977478	-27.222471	22.781900	-33.331814
926.355957	-91.811958	2.932626	-15.952682
926.734436	-74.415413	0.451100	-38.298302
927.112732	-74.415413	-36.785839	26.232435
927.491089	2.564149	-26.853672	18.790070
927.869324	-52.056133	37.664425	-15.952682
928.247559	54.654564	-16.923185	-18.435139
928.625671	-27.222471	20.301071	-35.815006
929.003723	-17.291922	2.932626	-35.815006
929.381775	-47.088478	-26.853672	53.512596
929.759705	5.045722	-6.994376	-78.044739
930.137634	5.045722	-36.785839	-85.500214
930.515381	-42.121376	-86.471870	-87.985626
930.893250	-76.900360	22.781900	13.828109
931.270935	-34.671452	-103.872032	88.214928
931.648560	-7.363050	-46.719688	-75.559753
932.026123	37.296165	5.414184	-15.952682
932.403687	2.564149	20.301071	-43.265079
932.781250	-7.363050	22.781900	-45.748692
933.158630	-37.154564	-16.923185	36.153866
933.536011	-66.961372	-126.251312	6.384319
933.913208	2.564149	37.664425	-38.298302
934.290527	-32.188305	-106.358238	-53.200027
934.667664	-64.476852	-21.888287	75.823616
935.044800	-32.188305	-6.994376	18.790070
935.421814	10.008420	5.414184	-40.781708
935.798889	-52.056133	-34.302605	-78.044739
936.175842	-52.056133	-54.171150	43.594059
936.552673	-27.222471	32.704044	-15.952682
936.929504	-39.637917	-46.719688	-15.952682
937.306274	-12.327209	-54.171150	-28.365881
937.683044	-104.241318	27.743246	6.384319
938.059570	-27.222471	7.895637	13.828109
938.436218	34.815945	30.223631	-105.386246
938.812744	10.008420	-24.370859	-45.748692
939.189148	-101.755203	-9.476456	-45.748692
939.565613	-2.399309	-56.655224	-8.506075
939.941956	-27.222471	-19.405684	-3.542238
940.318237	-27.222471	-56.655224	8.865731
940.694458	17.451754	-31.819477	-35.815006
941.070557	-29.705269	7.895637	-6.024172
941.446655	-89.326378	25.262625	-63.136669
941.822693	-54.539982	-14.440793	-60.652317
942.198669	-42.121376	-46.719688	-25.883005
942.574646	39.776283	35.184357	23.751751
942.950562	-29.705269	20.301071	-3.542238
943.326294	17.451754	55.022717	31.193357
943.702026	-27.222471	-51.687176	-75.559753
944.077698	0.082472	-41.752483	-70.590225
944.453369	27.374788	-34.302605	-15.952682
944.828918	-32.188305	-39.269176	8.865731
945.204468	-4.881060	-41.752483	-8.506075
945.579834	-54.539982	-31.819477	-6.024172
945.955261	-84.355675	7.895637	16.309210
946.330627	7.527056	15.339235	-8.506075
946.705811	-34.671452	50.063778	3.902802
947.081055	-4.881060	-64.107956	-60.652317
947.456177	-61.992577	-46.719688	-73.075005
947.831238	-49.572250	2.932626	-83.015038
948.206238	-59.508274	52.543365	-25.883005
948.581238	47.215889	-6.994376	-38.298302
948.956116	57.133957	15.339235	-73.075005
949.330933	10.008420	12.858095	-25.883005
949.705811	-59.508274	0.451100	-73.075005
950.080505	10.008420	-11.958639	-137.715561
950.455139	14.970702	-9.476456	-45.748692
950.829773	-66.961372	-46.719688	-92.956642
951.204346	5.045722	22.781900	-78.044739
951.578735	-27.222471	77.333176	-60.652317
951.953186	-188.831833	-36.785839	6.384319
952.327515	-42.121376	-69.076927	-55.684063
952.701843	-42.121376	7.895637	-50.716099
953.076172	-49.572250	-46.719688	-18.435139
953.450195	-49.572250	-36.785839	-1.060408
953.824341	-91.811958	-9.476456	-97.928215
954.198486	-19.774302	-9.476456	-35.815006
954.572449	-96.783302	-34.302605	28.712881
954.946350	-44.604942	-6.994376	1.421317
955.320251	-17.291922	0.451100	46.073780
955.694092	5.045722	22.781900	28.712881
956.067871	-71.930580	-31.819477	-38.298302
956.441589	-12.327209	15.339235	13.828109
956.815125	32.335617	-26.853672	-73.075005
957.188721	42.256165	45.104427	-33.331814
957.562256	-42.121376	-19.405684	18.790070
957.935730	-29.705269	-11.958639	-33.331814
958.309021	-57.024075	30.223631	-23.400368
958.682373	39.776283	-46.719688	28.712881
959.055664	34.815945	-21.888287	-20.917702
959.428955	-32.188305	-24.370859	-45.748692
959.802063	-111.700157	-29.336588	-38.298302
960.175110	-27.222471	-19.405684	55.992039
960.548157	-32.188305	-51.687176	1.421317
960.921143	84.400002	-11.958639	-43.265079
961.294128	-14.809513	0.451100	-110.358757
961.666809	-84.355675	-66.592316	-33.331814
962.039612	-27.222471	10.376986	28.712881
962.412415	-49.572250	-29.336588	-6.024172
962.785095	-84.355675	-4.512537	33.673733
963.157715	-37.154564	-14.440793	-25.883005
963.530151	44.736080	-46.719688	-55.684063
963.902649	-42.121376	-26.853672	-58.168068
964.275146	-49.572250	-21.888287	-35.815006
964.647522	-116.673218	-11.958639	-15.952682
965.019714	-69.445992	2.932626	-95.442375
965.392029	-94.297646	-74.046318	-68.105553
965.764160	-14.809513	5.414184	-23.400368
966.136292	-14.809513	47.584087	-58.168068
966.508423	-22.256920	32.704044	-75.559753
966.880371	-37.154564	59.981377	-105.386246
967.252319	-131.595078	12.858095	-20.917702
967.624207	-47.088478	35.184357	-45.748692
967.996094	52.175060	7.895637	1.421317
968.367737	0.082472	-21.888287	-65.621124
968.739441	-32.188305	-19.405684	-6.024172
969.111084	-64.476852	-71.561638	-68.105553
969.482666	-57.024075	5.414184	-40.781708
969.854248	-34.671452	-21.888287	3.902802
970.225586	-71.930580	30.223631	21.270964
970.596985	-32.188305	20.301071	-48.232410
970.968323	-7.363050	-88.957329	8.865731
971.339661	39.776283	2.932626	-38.298302
971.710754	-76.900360	2.932626	-18.435139
972.081909	-37.154564	7.895637	-40.781708
972.453064	-9.845144	7.895637	-6.024172
972.824097	-61.992577	-6.994376	13.828109
973.194946	-42.121376	-106.358238	36.153866
973.565918	14.970702	-44.236034	-8.506075
973.936768	-57.024075	67.418457	-18.435139
974.307556	-2.399309	-11.958639	-55.684063
974.678284	-37.154564	-29.336588	1.421317
975.048828	-4.881060	-39.269176	-28.365881
975.419495	-17.291922	92.202118	1.421317
975.790039	-71.930580	-74.046318	-95.442375
976.160522	-96.783302	-51.687176	-68.105553
976.530884	2.564149	-39.269176	-40.781708
976.901245	-47.088478	-24.370859	-13.470466
977.271606	7.527056	27.743246	-50.716099
977.641846	-14.809513	-29.336588	-8.506075
978.012024	-27.222471	-41.752483	-38.298302
978.382019	-57.024075	-44.236034	1.421317
978.752136	-52.056133	-49.203312	-38.298302
979.122131	-7.363050	-24.370859	-20.917702
979.492065	-9.845144	17.820272	-100.414162
979.861877	-52.056133	57.502094	6.384319
980.231689	-29.705269	-79.016273	-8.506075
980.601440	-42.121376	22.781900	-60.652317
980.971191	-44.604942	-56.655224	26.232435
981.340820	-2.399309	57.502094	-80.529839
981.710266	-54.539982	-31.819477	-90.471146
982.079773	-52.056133	-101.385933	-87.985626
982.449280	-86.841042	-16.923185	-80.529839
982.818604	-91.811958	-31.819477	-60.652317
983.187866	-49.572250	-39.269176	-53.200027
983.557129	-22.256920	-54.171150	-107.872513
983.926331	-74.415413	-29.336588	-40.781708
984.295471	-12.327209	10.376986	-8.506075
984.664612	-22.256920	-41.752483	-28.365881
985.033569	-34.671452	-66.592316	8.865731
985.402527	-57.024075	-39.269176	-23.400368
985.771362	-42.121376	-16.923185	-10.988217
986.140259	2.564149	-29.336588	-33.331814
986.508911	7.527056	-54.171150	-65.621124
986.877625	24.894152	10.376986	6.384319
987.246277	-64.476852	-41.752483	-40.781708
987.614929	-42.121376	-11.958639	8.865731
987.983459	-24.739643	17.820272	-73.075005
988.351807	-37.154564	-6.994376	-45.748692
988.720215	-74.415413	-16.923185	6.384319
989.088623	-49.572250	-2.030666	-68.105553
989.456909	-7.363050	-16.923185	11.346905
989.825012	-34.671452	-21.888287	-35.815006
990.193115	-74.415413	-16.923185	1.421317
990.561279	-27.222471	-2.030666	-28.365881
990.929321	5.045722	-16.923185	-8.506075
991.297302	-52.056133	-24.370859	-25.883005
991.665100	59.613117	-39.269176	-48.232410
992.033020	2.564149	-24.370859	36.153866
992.400818	32.335617	-4.512537	31.193357
992.768494	-59.508274	-29.336588	1.421317
993.136047	-76.900360	-36.785839	55.992039
993.503723	-42.121376	55.022717	-100.414162
993.871277	10.008420	-49.203312	-33.331814
994.238770	-9.845144	-41.752483	8.865731
994.606140	-96.783302	-4.512537	-3.542238
994.973450	-124.133667	-71.561638	-8.506075
995.340759	-69.445992	-61.623558	-102.900078
995.708008	-34.671452	-16.923185	-53.200027
996.075195	-32.188305	-103.872032	-50.716099
996.442200	-66.961372	17.820272	-10.988217
996.809265	-4.881060	-21.888287	-1.060408
997.176270	-114.186569	-71.561638	13.828109
997.543152	-57.024075	-56.655224	13.828109
997.910095	7.527056	-2.030666	-3.542238
998.276733	-14.809513	-44.236034	103.081306
998.643494	-4.881060	-26.853672	-38.298302
999.010193	-116.673218	-49.203312	11.346905
999.376831	-12.327209	-16.923185	-10.988217
999.743286	29.855324	-59.139275	1.421317
1000.109802	2.564149	32.704044	-6.024172
1000.476257	-47.088478	-4.512537	-18.435139
1000.842651	-32.188305	22.781900	-65.621124
1001.208923	10.008420	-46.719688	-53.200027
1001.575134	-27.222471	20.301071	-38.298302
1001.941284	-61.992577	-26.853672	-45.748692
1002.307434	42.256165	-34.302605	31.193357
1002.673523	44.736080	-86.471870	23.751751
1003.039429	-44.604942	-101.385933	-75.559753
1003.405334	7.527056	-66.592316	-1.060408
1003.771179	5.045722	0.451100	-25.883005
1004.137024	-69.445992	-21.888287	-48.232410
1004.502808	22.413546	-93.928421	-1.060408
1004.868408	42.256165	17.820272	-107.872513
1005.234009	-39.637917	7.895637	-105.386246
1005.599609	-49.572250	-46.719688	11.346905
1005.965149	-2.399309	-9.476456	-55.684063
1006.330444	-76.900360	-4.512537	-8.506075
1006.695862	-32.188305	0.451100	-3.542238
1007.061218	-2.399309	-26.853672	11.346905
1007.426453	-101.755203	10.376986	-110.358757
1007.791626	10.008420	-14.440793	-63.136669
1008.156677	-22.256920	-64.107956	-38.298302
1008.521729	-101.755203	-51.687176	-58.168068
1008.886780	-32.188305	-24.370859	-95.442375
1009.251709	-89.326378	-51.687176	-55.684063
1009.616577	2.564149	50.063778	-10.988217
1009.981384	0.082472	-19.405684	-15.952682
1010.346130	44.736080	-98.900085	-13.470466
1010.710754	-69.445992	-29.336588	-15.952682
1011.075439	-59.508274	-39.269176	1.421317
1011.439941	-42.121376	-21.888287	28.712881
1011.804443	-7.363050	-151.127441	8.865731
1012.168884	-57.024075	12.858095	-68.105553
1012.533325	-34.671452	5.414184	11.346905
1012.897522	-61.992577	-46.719688	-83.015038
1013.261780	-17.291922	-66.592316	-45.748692
1013.626038	-76.900360	-26.853672	-55.684063
1013.990112	-2.399309	-26.853672	-1.060408
1014.354187	-37.154564	32.704044	46.073780
1014.718140	-32.188305	0.451100	-1.060408
1015.082153	-54.539982	-29.336588	-50.716099
1015.446045	-57.024075	50.063778	-10.988217
1015.809937	10.008420	17.820272	58.471382
1016.173523	37.296165	2.932626	55.992039
1016.537170	-52.056133	-44.236034	-35.815006
1016.900879	-66.961372	-19.405684	-53.200027
1017.264404	-42.121376	-29.336588	3.902802
1017.627991	-64.476852	17.820272	-75.559753
1017.991333	47.215889	15.339235	-50.716099
1018.354675	-91.811958	-34.302605	-97.928215
1018.718018	-34.671452	-19.405684	-43.265079
1019.081299	-59.508274	-51.687176	-58.168068
1019.444397	17.451754	67.418457	-25.883005
1019.807495	-69.445992	-31.819477	-35.815006
1020.170593	-37.154564	-26.853672	46.073780
1020.533691	-29.705269	-29.336588	-15.952682
1020.896606	-59.508274	-34.302605	-100.414162
1021.259460	-17.291922	15.339235	-10.988217
1021.622253	-54.539982	-11.958639	-70.590225
1021.985046	-57.024075	-76.531242	-83.015038
1022.347778	-19.774302	-81.501411	-65.621124
1022.710327	-22.256920	-54.171150	3.902802
1023.072876	-71.930580	0.451100	-63.136669
1023.435364	-64.476852	-34.302605	-40.781708
1023.797852	-99.269203	-39.269176	11.346905
1024.160278	-69.445992	-66.592316	-45.748692
1024.522461	-14.809513	-39.269176	-28.365881
1024.884766	27.374788	40.144531	-10.988217
1025.246948	19.932701	15.339235	-35.815006
1025.609131	5.045722	5.414184	26.232435
1025.971069	-14.809513	-6.994376	95.648506
1026.333130	-66.961372	-36.785839	-115.331825
1026.694946	0.082472	5.414184	-40.781708
1027.056885	-86.841042	-41.752483	-87.985626
1027.418823	-39.637917	-6.994376	-15.952682
1027.780396	17.451754	37.664425	-23.400368
1028.142090	-49.572250	-29.336588	-33.331814
1028.503784	-74.415413	-49.203312	-40.781708
1028.865479	29.855324	-81.501411	-55.684063
1029.226807	-7.363050	-41.752483	-20.917702
1029.588135	54.654564	20.301071	-63.136669
1029.949707	29.855324	-16.923185	-45.748692
1030.310913	44.736080	-64.107956	13.828109
1030.672241	-52.056133	-34.302605	-110.358757
1031.033325	-42.121376	27.743246	-65.621124
1031.394531	-69.445992	27.743246	-75.559753
1031.755493	2.564149	32.704044	-58.168068
1032.116577	-22.256920	42.624531	-85.500214
1032.477417	-44.604942	-39.269176	-15.952682
1032.838257	10.008420	22.781900	-20.917702
1033.199097	-64.476852	-36.785839	-15.952682
1033.559937	-57.024075	-16.923185	-40.781708
1033.920654	-42.121376	-49.203312	-90.471146
1034.281128	-39.637917	-74.046318	-87.985626
1034.641724	-84.355675	-44.236034	-117.818382
1035.002197	7.527056	-61.623558	-115.331825
1035.362671	7.527056	-36.785839	-13.470466
1035.722900	34.815945	-88.957329	-28.365881
1036.083252	-57.024075	-24.370859	-85.500214
1036.443481	-34.671452	15.339235	18.790070
1036.803711	49.695457	0.451100	-115.331825
1037.163940	-57.024075	-61.623558	-95.442375
1037.523804	-42.121376	-16.923185	-8.506075
1037.883789	-27.222471	55.022717	11.346905
1038.243774	-47.088478	-44.236034	-23.400368
1038.603638	-17.291922	-51.687176	-28.365881
1038.963257	-57.024075	-41.752483	11.346905
1039.323120	-39.637917	-56.655224	-1.060408
1039.682861	-34.671452	-54.171150	-33.331814
>>>>>End Processed Spectral Data<<<<<
