Jaz Data File
++++++++++++++++++++++++++++++++++++
Date: Thu Nov 27 15:35:25 2014
User: jaz
Dark Spectrum Present: Yes
Reference Spectrum Present: Yes
Processed Spectrum Present: Yes
Spectrometers: JAZA2310
Integration Time (usec): 1940000 (JAZA2310)
Spectra Averaged: 1 (JAZA2310)
Boxcar Smoothing: 0 (JAZA2310)
Correct for Electrical Dark: Yes (JAZA2310)
Strobe/Lamp Enabled: No (JAZA2310)
Correct for Detector Non-linearity: Yes (JAZA2310)
Correct for Stray Light: No (JAZA2310)
Number of Pixels in Processed Spectrum: 2048
>>>>>Begin Processed Spectral Data<<<<<
W	D	R	S
188.301102	0	0	0
188.764923	0	0	0
189.228699	1326.4104	1371.297363	4.488648
189.692459	1283.767822	1337.632202	-2.244384
190.156158	1306.211304	1398.229614	62.841675
190.619812	1286.012085	1279.279053	109.973144
191.083435	1692.23938	1719.171509	20.199097
191.547043	1467.804443	1537.379272	17.954712
192.01059	1521.668823	1550.845337	-35.909668
192.474091	1618.175781	1537.379272	-15.710449
192.937561	1465.560059	1588.999268	80.796508
193.401001	1622.664551	1647.352295	6.733032
193.86441	1712.438477	1734.881958	-92.018311
194.327759	1705.705444	1734.881958	-42.6427
194.791077	1571.044434	1588.999268	65.086181
195.254349	1564.311401	1609.198364	-44.886963
195.717575	1600.221069	1535.134888	-38.154052
196.180786	1586.754883	1638.375	-8.977417
196.643951	1611.442749	1609.198364	-17.954834
197.107071	1501.469604	1517.180054	-24.687744
197.570145	1654.085449	1642.863647	-152.615845
198.033203	1593.487915	1595.7323	-31.420898
198.496216	1544.112305	1591.243652	-4.48877
198.959167	1566.555786	1562.067017	-67.330444
199.422089	1553.089722	1593.487915	-31.420899
199.884979	1496.980957	1550.845337	-60.597412
200.347855	1580.021851	1618.175781	-15.71045
200.810654	1604.709717	1683.261963	-13.466065
201.273422	1593.487915	1620.420166	-6.733032
201.73616	1815.678589	1802.212402	-31.420899
202.198853	1577.777466	1687.75061	58.353149
202.661514	1705.705444	1687.75061	-60.597412
203.12413	1465.560059	1597.976685	11.221801
203.5867	1770.791504	1797.723755	-4.488648
204.04924	1656.329712	1638.375	22.443481
204.511734	1512.691406	1559.822754	6.733032
204.974197	1618.175781	1707.949829	33.665283
205.436615	1505.958374	1532.890503	-85.285278
205.899002	1575.533203	1633.88623	-6.733032
206.361343	1449.849609	1571.044434	139.149659
206.823654	1546.356567	1645.108032	29.176636
207.285919	1654.085449	1707.949829	-11.221802
207.748123	1501.469604	1562.067017	49.375733
208.210327	1602.465332	1654.085449	-69.574829
208.672485	1458.827026	1588.999268	114.461792
209.134583	1689.994995	1689.994995	0
209.596649	1517.180054	1483.514893	4.488769
210.05867	1483.514893	1548.600952	29.176513
210.520676	1470.048706	1501.469604	-44.886963
210.982635	1537.379272	1591.243652	-13.466186
211.444534	1550.845337	1566.555786	-6.733032
211.906403	1741.61499	1782.013306	-105.484375
212.36824	1725.904541	1685.506226	-85.285278
212.830048	1550.845337	1571.044434	-8.977417
213.291779	1681.017578	1768.547241	-15.710449
213.753494	1490.247925	1584.51062	-15.710449
214.215179	1584.51062	1622.664551	24.687744
214.676819	1499.225342	1467.804443	-53.86438
215.138412	1438.627808	1505.958374	161.593261
215.59996	1620.420166	1627.153198	15.710449
216.061493	1575.533203	1582.266235	-13.466186
216.522949	1530.64624	1571.044434	83.040894
216.984406	1591.243652	1627.153198	33.665161
217.445801	1593.487915	1586.754883	-4.488647
217.907166	1696.728027	1694.483643	26.932129
218.368484	1602.465332	1645.108032	-11.22168
218.829773	1606.954102	1667.551514	-22.443482
219.291031	1613.687134	1613.687134	-87.529663
219.752228	1622.664551	1611.442749	-38.153931
220.213379	1611.442749	1665.307129	6.733032
220.6745	1474.537476	1472.293091	35.909545
221.135574	1573.288818	1541.86792	-22.443481
221.596634	1627.153198	1638.375	-44.886963
222.057648	1627.153198	1651.841064	-33.665283
222.5186	1463.315674	1474.537476	44.886963
222.979553	1580.021851	1456.582642	-20.199097
223.44043	1654.085449	1658.574097	-6.733154
223.901276	1674.284546	1580.021851	-76.307861
224.362076	1496.980957	1584.51062	87.529663
224.822845	1454.338257	1483.514893	20.199219
225.283569	1532.890503	1588.999268	17.954834
225.744278	1600.221069	1535.134888	-49.375732
226.20491	1615.931396	1573.288818	-35.909545
226.665512	1514.935791	1476.78186	-24.687866
227.126114	1606.954102	1557.578369	-56.108765
227.586639	1584.51062	1622.664551	2.244263
228.047119	1681.017578	1660.818481	-8.977417
228.507568	1640.619263	1613.687134	-33.665161
228.967972	1593.487915	1663.062744	-42.642578
229.428345	1503.713989	1519.424438	22.443482
229.888687	1580.021851	1564.311401	-42.642579
230.348984	1557.578369	1532.890503	22.443482
230.809219	1580.021851	1571.044434	-6.733033
231.26944	1530.64624	1555.333984	-69.574829
231.729614	1427.406128	1479.026123	26.932129
232.189758	1595.7323	1586.754883	-65.08606
232.649841	1521.668823	1627.153198	58.353028
233.109894	1474.537476	1604.709717	94.262695
233.569901	1660.818481	1712.438477	83.040894
234.029892	1669.795776	1755.081055	-38.15393
234.489822	1696.728027	1669.795776	4.488648
234.949707	1528.401855	1604.709717	67.330445
235.409561	1773.035889	1667.551514	-105.484375
235.869385	1678.773193	1649.59668	-6.733032
236.329163	1539.623535	1584.51062	-2.244263
236.788895	1514.935791	1544.112305	-35.909668
237.248581	1562.067017	1647.352295	49.375732
237.708237	1582.266235	1669.795776	60.597412
238.167847	1586.754883	1611.442749	44.886963
238.627441	1602.465332	1568.800171	35.909668
239.08696	1523.913086	1588.999268	13.466186
239.546463	1656.329712	1714.682861	-6.733032
240.00592	1557.578369	1638.375	74.063477
240.465332	1496.980957	1588.999268	-20.199097
240.924698	1517.180054	1627.153198	78.552246
241.384033	1501.469604	1557.578369	67.330567
241.843338	1483.514893	1591.243652	83.040893
242.302597	1553.089722	1521.668823	-13.466187
242.76181	1768.547241	1734.881958	-38.15393
243.220993	1602.465332	1701.216675	58.353149
243.680115	1667.551514	1730.393311	74.063476
244.139221	1505.958374	1658.574097	69.574829
244.598282	1568.800171	1575.533203	49.37561
245.057297	1519.424438	1613.687134	60.597413
245.516266	1642.863647	1631.641846	-47.131347
245.975189	1467.804443	1645.108032	40.398194
246.434082	1553.089722	1629.397583	-60.597534
246.892944	1496.980957	1584.51062	143.638306
247.351761	1526.157471	1651.841064	83.040893
247.810516	1844.855103	1932.384644	76.307861
248.269272	1568.800171	1710.194092	188.525268
248.727951	1757.325439	1914.429932	58.35315
249.1866	1499.225342	1755.081055	109.973022
249.645218	1508.202637	1764.058472	116.706176
250.10379	1624.908813	1883.009033	193.014039
250.562317	1550.845337	1869.542969	150.371338
251.020813	1472.293091	2055.823975	302.987182
251.479279	1503.713989	2396.965088	471.313355
251.937668	1494.736572	3680.732666	1259.079834
252.396057	1654.085449	6995.636719	3099.446289
252.854385	1575.533203	14482.786133	7370.44336
253.312683	1739.370605	28557.099609	16109.937989
253.77092	1535.134888	50868.175781	32197.435425
254.229126	1521.668823	53864.382813	35575.178833
254.687302	1532.890503	40557.636719	24681.109497
255.145432	1458.827026	11219.501953	6097.897095
255.6035	1447.605225	3797.438965	1330.89917
256.061584	1622.664551	2715.662598	588.019531
256.519592	1519.424438	2320.657227	471.313355
256.97757	1440.872192	1984.004761	390.516846
257.435455	1510.447021	2053.57959	215.45752
257.893372	1615.931396	1838.12207	134.661011
258.351196	1593.487915	1847.099365	130.172241
258.80899	1517.180054	1885.253418	251.367187
259.266754	1526.157471	1698.972412	62.841797
259.724487	1768.547241	1992.982178	154.860108
260.18219	1609.198364	1813.434204	76.307862
260.639832	1452.093994	1647.352295	85.285278
261.097443	1465.560059	1582.266235	132.416626
261.554993	1580.021851	1759.569824	53.864379
262.012512	1593.487915	1728.148926	163.837524
262.469971	1620.420166	1728.148926	85.285278
262.927429	1622.664551	1757.325439	53.86438
263.384827	1588.999268	1640.619263	-56.108765
263.842194	1618.175781	1586.754883	38.153931
264.29953	1479.026123	1600.221069	35.909668
264.756805	1514.935791	1582.266235	2.244263
265.21405	1575.533203	1696.728027	65.08606
265.671234	1746.10376	1858.321167	100.995605
266.128387	1602.465332	1591.243652	40.398315
266.58551	1548.600952	1492.492188	-145.88269
267.042572	1588.999268	1654.085449	-13.466065
267.499573	1633.88623	1544.112305	-71.819213
267.956604	1676.528931	1658.574097	31.420898
268.413574	1802.212402	1784.25769	13.466187
268.870483	1636.130615	1732.637573	15.710449
269.327362	1481.270508	1577.777466	92.01831
269.78418	1761.814209	1817.922852	-29.176636
270.240936	1712.438477	1820.167236	-13.466065
270.697693	1573.288818	1553.089722	20.199097
271.154419	1431.894775	1559.822754	132.416626
271.611053	1402.718262	1443.116577	83.040893
272.067688	1654.085449	1737.126343	35.909546
272.524292	1566.555786	1636.130615	-6.733032
272.980835	1566.555786	1654.085449	31.420899
273.437347	1669.795776	1725.904541	24.687867
273.893799	1499.225342	1633.88623	51.619995
274.35025	1544.112305	1530.64624	-6.733033
274.80661	1510.447021	1559.822754	-4.488647
275.262939	1716.927124	1757.325439	-4.488647
275.719238	1582.266235	1602.465332	49.375611
276.175507	1537.379272	1629.397583	6.733033
276.631714	1620.420166	1654.085449	42.642578
277.087891	1568.800171	1577.777466	8.977295
277.544067	1566.555786	1514.935791	-17.954834
278.000122	1474.537476	1537.379272	33.665161
278.456177	1591.243652	1674.284546	38.153931
278.912201	1624.908813	1606.954102	-29.176513
279.368164	1470.048706	1528.401855	-2.244263
279.824097	1472.293091	1521.668823	13.466064
280.279968	1539.623535	1550.845337	0
280.73584	1539.623535	1555.333984	-6.733032
281.19162	1505.958374	1575.533203	13.466064
281.6474	1597.976685	1627.153198	-33.665284
282.103149	1564.311401	1593.487915	154.860108
282.558838	1564.311401	1665.307129	31.420899
283.014465	1517.180054	1606.954102	51.620117
283.470062	1532.890503	1658.574097	74.063599
283.925629	1597.976685	1588.999268	58.353027
284.381134	1584.51062	1496.980957	-42.6427
284.836639	1555.333984	1602.465332	-51.619995
285.292053	1672.040161	1615.931396	-40.398315
285.747467	1537.379272	1541.86792	-49.375732
286.20282	1470.048706	1501.469604	44.887085
286.658142	1615.931396	1658.574097	-78.552124
287.113434	1530.64624	1580.021851	-51.620117
287.568634	1577.777466	1609.198364	-87.529541
288.023804	1692.23938	1757.325439	-47.131348
288.478973	1508.202637	1535.134888	38.15393
288.934113	1472.293091	1548.600952	56.108764
289.38913	1530.64624	1633.88623	60.597412
289.844208	1508.202637	1553.089722	47.131347
290.299164	1488.00354	1568.800171	89.773926
290.754089	1458.827026	1555.333984	100.995728
291.208984	1584.51062	1602.465332	-40.398315
291.663879	1629.397583	1698.972412	35.909546
292.118683	1476.78186	1588.999268	11.22168
292.573456	1595.7323	1681.017578	-33.665283
293.028198	1562.067017	1627.153198	22.443603
293.482849	1494.736572	1535.134888	8.977417
293.937561	1544.112305	1593.487915	0
294.392151	1889.742065	1916.674194	-20.199096
294.846741	1689.994995	1734.881958	20.199097
295.301239	1488.00354	1562.067017	22.443481
295.755737	1476.78186	1716.927124	130.172242
296.210175	1458.827026	1847.099365	240.145386
296.664581	1526.157471	2118.665771	464.580322
297.118958	1485.759155	2141.109131	608.218628
297.573242	1443.116577	2044.602173	487.023804
298.027557	1546.356567	1757.325439	154.860108
298.481812	1624.908813	1660.818481	40.398316
298.935974	1537.379272	1622.664551	44.886963
299.390137	1705.705444	1710.194092	-22.443481
299.844238	1577.777466	1523.913086	-2.244263
300.29834	1620.420166	1562.067017	-74.063599
300.75235	1474.537476	1523.913086	85.285278
301.20636	1577.777466	1622.664551	65.086181
301.660278	1517.180054	1606.954102	87.529663
302.114197	1481.270508	1624.908813	139.149658
302.568054	1470.048706	1606.954102	141.394043
303.021881	1530.64624	1633.88623	105.484375
303.475677	1622.664551	1633.88623	-49.375733
303.929413	1503.713989	1526.157471	83.040894
304.383118	1777.524658	1826.900269	-26.932251
304.836761	1602.465332	1546.356567	-31.420898
305.290375	1739.370605	1707.949829	-29.176513
305.743958	1449.849609	1530.64624	20.199097
306.19751	1501.469604	1514.935791	-38.15393
306.65097	1631.641846	1728.148926	94.262695
307.104431	1584.51062	1582.266235	-67.330566
307.5578	1676.528931	1732.637573	92.01831
308.011169	1627.153198	1613.687134	-112.217407
308.464508	1631.641846	1597.976685	-94.262574
308.917755	1492.492188	1636.130615	98.751464
309.371063	1580.021851	1606.954102	-17.954834
309.824219	1566.555786	1568.800171	89.773926
310.277374	1488.00354	1620.420166	49.375732
310.730499	1555.333984	1663.062744	56.108765
311.183563	1615.931396	1799.96814	60.597535
311.636597	1580.021851	1867.298584	193.014038
312.089569	1496.980957	2313.924072	583.530762
312.542511	1954.828247	3424.876953	1075.043335
312.995422	1467.804443	3712.153564	2026.647217
313.448273	1642.863647	4111.647949	2091.733521
313.901093	1624.908813	3458.542236	1440.872193
314.353882	1654.085449	2576.512939	684.526367
314.80658	1606.954102	1880.764648	190.769653
315.259308	1573.288818	1746.10376	29.176514
315.711975	1501.469604	1548.600952	29.176636
316.164581	1696.728027	1784.25769	17.954834
316.617126	1633.88623	1676.528931	-125.683593
317.069672	1494.736572	1559.822754	47.131348
317.522156	1595.7323	1562.067017	-40.398316
317.974579	1530.64624	1519.424438	17.954712
318.427002	1604.709717	1600.221069	-56.108765
318.879333	1739.370605	1714.682861	-24.687744
319.331665	1490.247925	1629.397583	35.909546
319.783936	1465.560059	1456.582642	65.086181
320.236176	1461.071411	1470.048706	42.642578
320.688354	1629.397583	1548.600952	-118.950562
321.140503	1488.00354	1535.134888	47.131348
321.592651	1631.641846	1674.284546	-31.420777
322.044647	1620.420166	1593.487915	-33.665283
322.496704	1606.954102	1564.311401	-69.57483
322.948639	1508.202637	1582.266235	-44.886963
323.400604	1624.908813	1640.619263	-53.864379
323.852509	1667.551514	1737.126343	29.176513
324.304352	1499.225342	1517.180054	-22.443482
324.756165	1602.465332	1642.863647	17.954834
325.207916	1539.623535	1492.492188	-29.176514
325.659668	1566.555786	1647.352295	-17.954834
326.111328	1526.157471	1597.976685	49.375732
326.562988	1550.845337	1555.333984	-8.977417
327.014557	1530.64624	1544.112305	-76.307983
327.466156	1649.59668	1651.841064	22.443481
327.917664	1454.338257	1539.623535	96.50708
328.36911	1624.908813	1602.465332	-26.932128
328.820557	1591.243652	1553.089722	33.665161
329.271942	1463.315674	1530.64624	89.774048
329.723297	1582.266235	1483.514893	-71.819214
330.174561	1546.356567	1562.067017	-51.619995
330.625854	1624.908813	1640.619263	-98.751342
331.077026	1537.379272	1532.890503	-2.244384
331.528229	1575.533203	1642.863647	15.710449
331.97937	1555.333984	1629.397583	56.108765
332.43045	1559.822754	1689.994995	-11.221802
332.8815	1532.890503	1530.64624	-2.244263
333.332489	1566.555786	1669.795776	35.909546
333.783478	1687.75061	1721.415894	134.661011
334.234406	1492.492188	1577.777466	56.108764
334.685303	1557.578369	1649.59668	107.72876
335.136078	1449.849609	1496.980957	60.597412
335.586914	1593.487915	1660.818481	42.6427
336.037659	1660.818481	1694.483643	60.597413
336.488342	1492.492188	1573.288818	15.710449
336.939026	1479.026123	1573.288818	87.529663
337.389648	1564.311401	1503.713989	-4.488647
337.84024	1523.913086	1568.800171	-13.466065
338.290771	1548.600952	1544.112305	31.420899
338.741272	1676.528931	1591.243652	-42.642701
339.191681	1741.61499	1645.108032	-31.420898
339.64212	1701.216675	1609.198364	17.954834
340.092468	1638.375	1647.352295	20.199097
340.542816	1461.071411	1476.78186	76.307861
340.993103	1627.153198	1528.401855	4.488648
341.443329	1535.134888	1624.908813	92.01831
341.893555	1474.537476	1566.555786	-51.620118
342.343689	1528.401855	1481.270508	38.153931
342.793793	1523.913086	1510.447021	24.687866
343.243866	1508.202637	1546.356567	26.932251
343.693878	1519.424438	1553.089722	53.86438
344.14389	1600.221069	1624.908813	-98.751465
344.593842	1723.660156	1746.10376	-44.886963
345.043732	1606.954102	1730.393311	35.909545
345.493591	1631.641846	1714.682861	-31.420777
345.943359	1562.067017	1613.687134	-56.108643
346.393158	1532.890503	1597.976685	-2.244263
346.842896	1537.379272	1580.021851	-89.774047
347.292542	1510.447021	1559.822754	24.687867
347.742218	1514.935791	1514.935791	60.597412
348.191803	1508.202637	1521.668823	-107.72876
348.641357	1514.935791	1553.089722	-17.954834
349.090881	1496.980957	1577.777466	20.199097
349.540314	1566.555786	1595.7323	-69.574829
349.989777	1553.089722	1618.175781	22.443481
350.439148	1447.605225	1485.759155	60.597412
350.888489	1440.872192	1548.600952	62.841797
351.337799	1622.664551	1645.108032	-6.733155
351.787048	1523.913086	1555.333984	-17.954712
352.236267	1550.845337	1602.465332	53.86438
352.685425	1485.759155	1564.311401	-8.977295
353.134552	1539.623535	1488.00354	-80.796509
353.583649	1649.59668	1571.044434	-53.86438
354.032684	1479.026123	1548.600952	44.886963
354.481659	1707.949829	1705.705444	-71.819214
354.930634	1618.175781	1645.108032	-26.932129
355.379517	1496.980957	1557.578369	83.040894
355.82843	1577.777466	1656.329712	-11.22168
356.277222	1492.492188	1499.225342	-35.909546
356.726013	1470.048706	1496.980957	123.439209
357.174774	1571.044434	1584.51062	-65.08606
357.623444	1526.157471	1488.00354	78.552246
358.072113	1514.935791	1633.88623	49.37561
358.520721	1488.00354	1537.379272	4.488648
358.969299	1577.777466	1546.356567	-58.353028
359.417786	1474.537476	1483.514893	17.954712
359.866302	1692.23938	1712.438477	-44.887085
360.314697	1514.935791	1586.754883	-15.710449
360.763123	1595.7323	1548.600952	38.15393
361.211456	1582.266235	1606.954102	-2.244384
361.65976	1537.379272	1591.243652	4.488648
362.108032	1597.976685	1647.352295	-15.71045
362.556244	1582.266235	1597.976685	-17.954834
363.004456	1483.514893	1597.976685	53.864379
363.452576	1631.641846	1788.746338	67.330566
363.900696	1452.093994	1972.782959	356.851441
364.348663	1539.623535	2843.590576	899.984131
364.796722	1499.225342	4616.626465	2251.082275
365.24469	1492.492188	5978.946289	3133.111816
365.692596	1514.935791	6073.208984	3243.084717
366.140472	1510.447021	4544.807129	2147.842286
366.588287	1555.333984	3433.854248	1241.125245
367.036102	1501.469604	2504.693848	763.078736
367.483826	1476.78186	1957.07251	325.430542
367.931549	1573.288818	1824.655884	94.262696
368.379181	1580.021851	1741.61499	69.574829
368.826843	1447.605225	1716.927124	33.665283
369.274384	1474.537476	1582.266235	40.398315
369.721924	1624.908813	1636.130615	31.420899
370.169403	1698.972412	1732.637573	-89.774048
370.616821	1645.108032	1678.773193	-49.375732
371.06427	1586.754883	1636.130615	-4.488648
371.511566	1485.759155	1512.691406	58.35315
371.958923	1586.754883	1721.415894	49.375732
372.406158	1685.506226	1624.908813	-89.773926
372.853424	1526.157471	1553.089722	-49.375611
373.300568	1562.067017	1665.307129	103.240112
373.747711	1611.442749	1645.108032	-22.443481
374.194794	1539.623535	1602.465332	11.221802
374.641846	1505.958374	1631.641846	13.466064
375.088898	1501.469604	1633.88623	40.398316
375.535828	1636.130615	1766.302856	6.733032
375.982758	1519.424438	1550.845337	20.199097
376.429596	1611.442749	1692.23938	58.353027
376.876465	1535.134888	1647.352295	74.063476
377.323242	1521.668823	1636.130615	107.72876
377.769989	1586.754883	1636.130615	69.574829
378.216675	1553.089722	1557.578369	29.176513
378.66333	1510.447021	1550.845337	51.619996
379.109985	1573.288818	1568.800171	-22.443481
379.556519	1768.547241	1833.633301	-78.552246
380.003052	1575.533203	1609.198364	69.574829
380.449524	1532.890503	1649.59668	65.086182
380.895996	1440.872192	1521.668823	20.199219
381.342377	1555.333984	1667.551514	-49.37561
381.788727	1485.759155	1571.044434	38.153931
382.235046	1523.913086	1676.528931	38.153931
382.681274	1624.908813	1797.723755	107.72876
383.127533	1456.582642	1557.578369	8.977417
383.573669	1571.044434	1694.483643	33.665283
384.019836	1689.994995	1674.284546	17.954834
384.465912	1458.827026	1553.089722	141.394043
384.911957	1559.822754	1728.148926	33.665161
385.357971	1492.492188	1649.59668	38.154052
385.803925	1481.270508	1488.00354	6.733032
386.249847	1577.777466	1613.687134	24.687866
386.695679	1559.822754	1665.307129	92.01831
387.141541	1514.935791	1568.800171	40.398193
387.587311	1636.130615	1658.574097	-29.176513
388.033051	1580.021851	1698.972412	-38.153931
388.478729	1474.537476	1645.108032	98.751342
388.924408	1503.713989	1593.487915	85.285279
389.369995	1532.890503	1575.533203	98.751343
389.815552	1476.78186	1584.51062	58.353028
390.261078	1559.822754	1685.506226	107.72876
390.706543	1710.194092	1829.144653	8.977417
391.152008	1575.533203	1629.397583	-62.841797
391.597351	1546.356567	1532.890503	-17.954712
392.042725	1539.623535	1631.641846	44.887085
392.487976	1544.112305	1595.7323	65.086059
392.933289	1537.379272	1562.067017	49.375611
393.378479	1481.270508	1669.795776	184.036621
393.823639	1656.329712	1710.194092	-31.420899
394.268768	1449.849609	1575.533203	127.927857
394.713837	1669.795776	1851.588135	105.484497
395.158905	1503.713989	1631.641846	130.172241
395.603851	1488.00354	1559.822754	83.040894
396.048798	1557.578369	1615.931396	6.733032
396.493683	1593.487915	1698.972412	166.081909
396.938568	1597.976685	1734.881958	118.950439
397.383392	1741.61499	1806.701172	56.108765
397.828156	1526.157471	1505.958374	40.398315
398.272888	1465.560059	1553.089722	40.398315
398.71756	1434.13916	1555.333984	62.841797
399.162201	1566.555786	1629.397583	-24.687866
399.606781	1461.071411	1640.619263	53.86438
400.051361	1481.270508	1586.754883	44.886963
400.495819	1528.401855	1629.397583	62.841797
400.940308	1512.691406	1591.243652	26.932129
401.384705	1674.284546	1694.483643	-20.199097
401.829102	1629.397583	1764.058472	69.574829
402.273438	1651.841064	1611.442749	69.57483
402.717682	1409.451294	1584.51062	159.348877
403.161926	1438.627808	1577.777466	172.814941
403.60611	1523.913086	1918.918579	253.611572
404.050293	1555.333984	2744.839111	913.450196
404.494385	1481.270508	4183.466797	2233.127441
404.938446	1420.673096	4951.034668	2944.586181
405.382477	1449.849609	4719.866211	2697.708008
405.826447	1606.954102	3454.053467	1378.030273
406.270386	1508.202637	2545.092041	790.010986
406.714233	1676.528931	2150.08667	341.140991
407.158081	1575.533203	1768.547241	206.480103
407.601868	1499.225342	1806.701172	258.100097
408.045624	1620.420166	1948.095093	244.634033
408.489319	1521.668823	1923.407349	269.3219
408.933014	1860.565552	2037.869141	132.416626
409.376617	1510.447021	1685.506226	163.837525
409.82019	1555.333984	1629.397583	29.176636
410.263702	1629.397583	1721.415894	24.687866
410.707184	1568.800171	1719.171509	107.72876
411.150635	1539.623535	1562.067017	-6.733032
411.594025	1553.089722	1698.972412	-4.48877
412.037384	1452.093994	1656.329712	195.258301
412.480682	1490.247925	1636.130615	148.127075
412.923981	1523.913086	1613.687134	53.86438
413.367126	1512.691406	1606.954102	42.642578
413.810333	1494.736572	1595.7323	38.153931
414.253479	1526.157471	1602.465332	74.063598
414.696533	1591.243652	1530.64624	33.665161
415.139587	1485.759155	1544.112305	109.973145
415.582581	1804.456787	1817.922852	13.466065
416.025543	1627.153198	1609.198364	8.977417
416.468414	1544.112305	1566.555786	-29.176514
416.911285	1537.379272	1544.112305	20.199097
417.354065	1790.990723	1907.696899	15.710449
417.796875	1481.270508	1488.00354	22.443481
418.239594	1456.582642	1461.071411	38.15393
418.682281	1613.687134	1694.483643	-4.48877
419.124908	1508.202637	1535.134888	-6.733033
419.567505	1696.728027	1669.795776	26.932129
420.010071	1443.116577	1470.048706	109.973145
420.452545	1586.754883	1557.578369	-51.619995
420.89502	1438.627808	1501.469604	92.018432
421.337372	1550.845337	1568.800171	127.927856
421.779785	1764.058472	1813.434204	31.420898
422.222107	1615.931396	1790.990723	98.751465
422.664368	1591.243652	1645.108032	2.244263
423.106628	1467.804443	1597.976685	42.642578
423.548798	1539.623535	1642.863647	20.199219
423.990967	1555.333984	1591.243652	33.665284
424.433044	1521.668823	1640.619263	103.23999
424.875092	1555.333984	1606.954102	40.398316
425.317078	1519.424438	1674.284546	40.398316
425.759064	1555.333984	1642.863647	-4.488647
426.200989	1425.161743	1562.067017	24.687866
426.642853	1528.401855	1703.46106	49.375611
427.084686	1633.88623	1656.329712	92.018311
427.526459	1526.157471	1568.800171	-33.665283
427.968201	1526.157471	1586.754883	20.199096
428.409912	1456.582642	1467.804443	69.574829
428.851563	1633.88623	1555.333984	-26.932128
429.293121	1514.935791	1539.623535	22.443481
429.734711	1488.00354	1505.958374	4.488648
430.176239	1499.225342	1593.487915	107.72876
430.617706	1550.845337	1584.51062	15.710449
431.059113	1499.225342	1577.777466	13.466064
431.500488	1411.695679	1501.469604	53.86438
431.941833	1422.917358	1492.492188	85.285279
432.383087	1463.315674	1499.225342	-35.909546
432.824341	1546.356567	1615.931396	112.21753
433.265533	1519.424438	1618.175781	11.221802
433.706726	1483.514893	1620.420166	65.086059
434.147827	1584.51062	1609.198364	47.131226
434.588867	1521.668823	1865.054199	406.227173
435.029877	1622.664551	3074.758545	962.825683
435.470825	1456.582642	6542.277832	3792.950073
435.911804	1503.713989	9982.865234	6272.955933
436.352661	1566.555786	10959.157227	6946.26062
436.793518	1575.533203	8164.942383	4915.125
437.234283	1575.533203	5355.01709	2776.259766
437.675049	1481.270508	3498.94043	1512.691406
438.115723	1521.668823	2581.001709	798.988404
438.556396	1528.401855	1939.117798	314.208863
438.99704	1609.198364	1739.370605	29.176636
439.437561	1559.822754	1795.47937	132.416626
439.878113	1510.447021	1544.112305	38.153931
440.318573	1503.713989	1481.270508	20.199097
440.759033	1804.456787	1811.189819	-42.642578
441.199341	1586.754883	1559.822754	24.687866
441.639709	1425.161743	1436.383545	15.710449
442.079956	1517.180054	1532.890503	38.15393
442.520264	1503.713989	1595.7323	17.954834
442.96051	1582.266235	1613.687134	-116.706176
443.400604	1611.442749	1620.420166	29.176514
443.840759	1481.270508	1591.243652	-8.977417
444.280762	1465.560059	1474.537476	2.244384
444.720825	1494.736572	1600.221069	17.954834
445.160767	1586.754883	1620.420166	4.488769
445.600739	1481.270508	1456.582642	0
446.040558	1458.827026	1537.379272	125.683594
446.480438	1602.465332	1530.64624	-53.86438
446.920258	1526.157471	1544.112305	-31.420899
447.359955	1501.469604	1615.931396	-11.221679
447.799713	1461.071411	1519.424438	62.841675
448.239319	1409.451294	1544.112305	35.909668
448.678955	1521.668823	1521.668823	69.574829
449.1185	1604.709717	1564.311401	-22.443482
449.558014	1481.270508	1615.931396	116.706177
449.997498	1398.229614	1490.247925	49.375611
450.436951	1447.605225	1470.048706	33.665283
450.876343	1510.447021	1472.293091	2.244385
451.315674	1604.709717	1622.664551	-8.977417
451.754974	1559.822754	1503.713989	-80.796631
452.194183	1649.59668	1624.908813	-47.131348
452.633392	1523.913086	1544.112305	33.665283
453.07251	1539.623535	1528.401855	4.48877
453.511688	1445.360962	1588.999268	38.153931
453.950684	1541.86792	1633.88623	17.954834
454.38974	1631.641846	1494.736572	-71.819092
454.828735	1633.88623	1656.329712	15.71045
455.267639	1514.935791	1555.333984	-6.733154
455.706543	1640.619263	1676.528931	-80.796509
456.145325	1638.375	1660.818481	-100.995728
456.584137	1826.900269	1793.234985	-51.619996
457.022858	1481.270508	1496.980957	-65.086182
457.461578	1575.533203	1553.089722	-89.774048
457.900208	1553.089722	1548.600952	13.466064
458.338867	1535.134888	1580.021851	-13.466065
458.777405	1488.00354	1595.7323	31.420898
459.215912	1546.356567	1660.818481	56.108765
459.654388	1656.329712	1676.528931	-22.443482
460.092773	1512.691406	1674.284546	17.954834
460.531189	1427.406128	1505.958374	-13.466065
460.969513	1535.134888	1593.487915	13.466064
461.407806	1546.356567	1562.067017	49.375733
461.846008	1584.51062	1660.818481	-29.176636
462.284241	1443.116577	1465.560059	69.574829
462.722351	1503.713989	1544.112305	15.710449
463.160461	1490.247925	1503.713989	-40.398316
463.598541	1479.026123	1501.469604	-38.153931
464.03653	1593.487915	1557.578369	-38.153931
464.474518	1499.225342	1485.759155	13.466064
464.912384	1411.695679	1503.713989	87.529663
465.350281	1476.78186	1546.356567	78.552124
465.788086	1586.754883	1523.913086	-76.307862
466.225891	1492.492188	1479.026123	-71.819092
466.663605	1586.754883	1559.822754	-47.131348
467.101318	1553.089722	1613.687134	69.574829
467.539001	1429.650513	1483.514893	17.954712
467.976563	1564.311401	1615.931396	67.330445
468.414124	1521.668823	1604.709717	-2.244385
468.851593	1629.397583	1600.221069	-51.620117
469.289063	1548.600952	1537.379272	-56.108764
469.72644	1526.157471	1546.356567	-40.398316
470.163849	1445.360962	1454.338257	85.285278
470.601135	1584.51062	1562.067017	-47.131348
471.038422	1470.048706	1521.668823	65.086182
471.475677	1584.51062	1528.401855	-22.443603
471.912811	1420.673096	1470.048706	35.909546
472.350006	1510.447021	1546.356567	40.398316
472.787048	1485.759155	1541.86792	-20.199096
473.224121	1597.976685	1573.288818	0
473.661072	1476.78186	1505.958374	26.932129
474.098053	1557.578369	1591.243652	38.153931
474.534943	1519.424438	1584.51062	-4.488647
474.971802	1447.605225	1483.514893	26.932251
475.40863	1483.514893	1667.551514	74.063476
475.845367	1553.089722	1553.089722	-17.954834
476.282104	1503.713989	1568.800171	-13.466064
476.71875	1496.980957	1505.958374	20.199097
477.155426	1766.302856	1660.818481	-65.086181
477.591949	1483.514893	1588.999268	-17.954834
478.028503	1597.976685	1654.085449	-4.48877
478.464966	1465.560059	1523.913086	33.665283
478.901428	1490.247925	1550.845337	56.108642
479.33786	1481.270508	1488.00354	20.199096
479.77417	1553.089722	1546.356567	-44.887085
480.21051	1573.288818	1573.288818	-47.131347
480.646698	1492.492188	1416.184326	20.199218
481.082947	1425.161743	1571.044434	60.597412
481.519073	1597.976685	1559.822754	-44.886963
481.9552	1416.184326	1387.007813	56.108765
482.391266	1517.180054	1541.86792	-22.443482
482.827301	1523.913086	1512.691406	4.488769
483.263306	1519.424438	1678.773193	76.307862
483.699188	1633.88623	1707.949829	-80.796508
484.135101	1683.261963	1730.393311	-40.398316
484.570923	1577.777466	1555.333984	-13.466065
485.006744	1503.713989	1550.845337	20.199097
485.442413	1501.469604	1517.180054	-31.420898
485.878174	1786.501953	1833.633301	-22.443481
486.313782	1499.225342	1606.954102	4.488647
486.74939	1573.288818	1586.754883	4.488648
487.184998	1537.379272	1546.356567	2.244263
487.620453	1449.849609	1553.089722	60.597412
488.055939	1458.827026	1526.157471	6.733033
488.491333	1429.650513	1550.845337	4.488647
488.926727	1508.202637	1544.112305	-29.176514
489.36203	1591.243652	1557.578369	-35.909668
489.797302	1496.980957	1508.202637	31.420898
490.232513	1606.954102	1636.130615	31.420898
490.667755	1555.333984	1539.623535	-89.773925
491.102905	1656.329712	1618.175781	-107.72876
491.537964	1481.270508	1425.161743	-51.619995
491.973022	1649.59668	1622.664551	-13.466065
492.40799	1633.88623	1669.795776	-26.932128
492.842957	1683.261963	1703.46106	-24.687866
493.277832	1508.202637	1615.931396	11.221801
493.712738	1436.383545	1537.379272	53.86438
494.147491	1535.134888	1532.890503	6.733032
494.582275	1485.759155	1526.157471	4.48877
495.017029	1694.483643	1732.637573	-20.199097
495.45166	1490.247925	1566.555786	33.665161
495.886292	1523.913086	1541.86792	-38.153931
496.320831	1508.202637	1631.641846	8.977417
496.755402	1629.397583	1689.994995	-35.909668
497.18985	1501.469604	1440.872192	-78.552246
497.624298	1656.329712	1602.465332	-44.886963
498.058655	1559.822754	1665.307129	125.683472
498.493042	1445.360962	1568.800171	125.683472
498.927368	1481.270508	1566.555786	78.552246
499.361572	1714.682861	1790.990723	6.733033
499.795807	1629.397583	1685.506226	17.954712
500.229919	1555.333984	1667.551514	74.063599
500.664063	1615.931396	1642.863647	-22.443481
501.098083	1499.225342	1544.112305	-33.665283
501.532104	1416.184326	1454.338257	130.172241
501.966064	1488.00354	1564.311401	17.954834
502.399994	1539.623535	1510.447021	-29.176514
502.833893	1510.447021	1577.777466	13.466065
503.2677	1521.668823	1519.424438	-31.420898
503.701477	1588.999268	1629.397583	-51.619996
504.135193	1548.600952	1568.800171	-98.751343
504.568909	1514.935791	1535.134888	4.488647
505.002502	1458.827026	1485.759155	100.995728
505.436127	1595.7323	1676.528931	33.665283
505.869629	1553.089722	1645.108032	-13.466187
506.303162	1631.641846	1689.994995	33.665283
506.736603	1546.356567	1528.401855	6.733155
507.169983	1454.338257	1638.375	103.240112
507.603363	1452.093994	1562.067017	40.398194
508.036621	1571.044434	1528.401855	-13.466065
508.46994	1591.243652	1586.754883	-4.488769
508.903107	1557.578369	1649.59668	15.710449
509.336304	1510.447021	1483.514893	-15.710449
509.769379	1499.225342	1523.913086	-17.954834
510.202484	1606.954102	1575.533203	-83.041016
510.635529	1461.071411	1562.067017	2.244263
511.068481	1483.514893	1431.894775	-33.665284
511.501434	1613.687134	1685.506226	40.398315
511.934265	1465.560059	1541.86792	40.398315
512.367126	1580.021851	1658.574097	112.217529
512.799927	1456.582642	1488.00354	62.841796
513.232605	1548.600952	1580.021851	-98.751343
513.665344	1452.093994	1550.845337	15.710449
514.097961	1586.754883	1499.225342	22.443481
514.530579	1431.894775	1492.492188	76.307862
514.963135	1465.560059	1519.424438	20.199096
515.395691	1571.044434	1597.976685	31.420898
515.828064	1514.935791	1499.225342	-53.86438
516.260498	1445.360962	1465.560059	-13.466187
516.692871	1535.134888	1528.401855	62.841797
517.125183	1651.841064	1719.171509	112.217408
517.557373	1530.64624	1550.845337	-31.420898
517.989624	1734.881958	1721.415894	-47.131348
518.421753	1550.845337	1591.243652	-56.108765
518.853943	1481.270508	1472.293091	-2.244385
519.286072	1494.736572	1620.420166	-15.710449
519.718018	1555.333984	1629.397583	53.86438
520.150024	1440.872192	1470.048706	24.687867
520.581909	1568.800171	1544.112305	31.420898
521.013855	1510.447021	1472.293091	76.307862
521.445679	1517.180054	1546.356567	11.221801
521.877502	1519.424438	1582.266235	-6.733032
522.309204	1566.555786	1512.691406	6.733032
522.740906	1553.089722	1546.356567	-53.86438
523.172546	1470.048706	1541.86792	53.86438
523.604187	1479.026123	1449.849609	56.108765
524.035767	1571.044434	1546.356567	2.244384
524.467224	1422.917358	1420.673096	60.597535
524.898682	1517.180054	1499.225342	13.466186
525.330078	1503.713989	1503.713989	42.642578
525.761475	1479.026123	1494.736572	-56.108765
526.192749	1494.736572	1503.713989	20.199219
526.624023	1458.827026	1591.243652	47.131348
527.055237	1568.800171	1537.379272	24.687744
527.486389	1548.600952	1528.401855	11.221802
527.917542	1580.021851	1622.664551	13.466064
528.348572	1676.528931	1615.931396	-143.638428
528.779663	1427.406128	1512.691406	35.909546
529.210571	1602.465332	1501.469604	-71.819092
529.641541	1521.668823	1566.555786	47.131348
530.072388	1575.533203	1521.668823	-96.50708
530.503235	1584.51062	1593.487915	44.886963
530.934082	1505.958374	1553.089722	-94.262695
531.364746	1535.134888	1472.293091	-118.950562
531.795532	1526.157471	1503.713989	8.977417
532.226135	1555.333984	1470.048706	17.954834
532.656738	1537.379272	1546.356567	29.176514
533.08728	1799.96814	1766.302856	-67.330567
533.517822	1571.044434	1604.709717	13.466186
533.948242	1640.619263	1739.370605	20.199218
534.378662	1479.026123	1456.582642	56.108765
534.809082	1640.619263	1678.773193	-83.040894
535.239319	1676.528931	1701.216675	-83.041016
535.669617	1588.999268	1618.175781	38.15393
536.099792	1559.822754	1499.225342	-71.819214
536.529968	1485.759155	1517.180054	-53.86438
536.960083	1481.270508	1559.822754	-6.733032
537.390137	1658.574097	1660.818481	26.932129
537.82019	1553.089722	1528.401855	-24.687867
538.250183	1501.469604	1546.356567	-33.665161
538.680115	1458.827026	1499.225342	-60.597412
539.109985	1889.742065	1907.696899	-89.773925
539.539795	1481.270508	1606.954102	65.086059
539.969543	1517.180054	1573.288818	92.01831
540.399292	1476.78186	1519.424438	87.529541
540.828979	1640.619263	1615.931396	33.665283
541.258606	1496.980957	1568.800171	69.574829
541.688171	1436.383545	1488.00354	53.86438
542.117737	1530.64624	1606.954102	4.488648
542.547302	1600.221069	1568.800171	8.977295
542.976685	1510.447021	1555.333984	-2.244384
543.406128	1580.021851	1656.329712	58.353149
543.835388	1481.270508	1528.401855	31.420898
544.264771	1510.447021	1550.845337	96.507081
544.69397	1485.759155	1618.175781	62.841797
545.12323	1528.401855	2257.81543	612.707276
545.552307	1416.184326	7525.303223	5164.247803
545.981506	1782.013306	15001.230469	10449.689819
546.410583	1456.582642	17981.726563	13288.792358
546.839539	1492.492188	14617.446289	10442.957031
547.268555	1743.859375	9655.19043	6118.096191
547.697449	1820.167236	7047.256836	4104.914795
548.126282	1494.736572	5267.487793	2993.96167
548.555054	1418.428711	4084.715576	1957.07251
548.983887	1519.424438	3029.871582	1119.930298
549.412598	1647.352295	2403.697998	536.399414
549.841309	1716.927124	2114.177002	262.588867
550.269958	1467.804443	1647.352295	163.837403
550.698486	1575.533203	1683.261963	56.108643
551.127075	1602.465332	1737.126343	40.398315
551.555481	1443.116577	1488.00354	29.176514
551.983948	1496.980957	1600.221069	8.977417
552.412292	1564.311401	1721.415894	0
552.840698	1483.514893	1553.089722	80.796508
553.26886	1535.134888	1568.800171	42.642578
553.697205	1503.713989	1537.379272	-44.886963
554.125366	1631.641846	1694.483643	17.954834
554.553467	1479.026123	1562.067017	26.932251
554.981628	1555.333984	1600.221069	-11.221679
555.409607	1588.999268	1611.442749	-6.733033
555.837646	1427.406128	1528.401855	53.86438
556.265564	1651.841064	1629.397583	-67.330444
556.693481	1620.420166	1553.089722	-136.905273
557.121338	1539.623535	1535.134888	109.973145
557.549133	1472.293091	1505.958374	44.886963
557.976929	1503.713989	1490.247925	49.375733
558.404602	1681.017578	1746.10376	31.420899
558.832275	1496.980957	1505.958374	-8.977417
559.259888	1443.116577	1425.161743	87.529663
559.687439	1505.958374	1651.841064	69.574829
560.114929	1467.804443	1510.447021	24.687745
560.542419	1557.578369	1481.270508	-47.131348
560.969788	1490.247925	1503.713989	-20.199219
561.397156	1510.447021	1440.872192	-26.932128
561.824524	1521.668823	1474.537476	-24.687866
562.25177	1541.86792	1571.044434	17.954834
562.679016	1416.184326	1422.917358	51.620117
563.10614	1663.062744	1629.397583	-53.86438
563.533264	1645.108032	1649.59668	-51.620117
563.960327	1553.089722	1571.044434	38.15393
564.387329	1546.356567	1568.800171	24.687867
564.814331	1548.600952	1490.247925	-69.574829
565.241272	1463.315674	1530.64624	-4.488648
565.668213	1609.198364	1609.198364	-13.466064
566.094971	1438.627808	1535.134888	51.620117
566.52179	1573.288818	1586.754883	15.71045
566.948425	1526.157471	1492.492188	-103.240113
567.375183	1656.329712	1588.999268	-103.23999
567.801819	1557.578369	1640.619263	-22.443481
568.228394	1557.578369	1593.487915	8.977417
568.654846	1537.379272	1584.51062	2.244263
569.081421	1638.375	1658.574097	42.642578
569.507874	1544.112305	1577.777466	33.665161
569.934265	1550.845337	1488.00354	51.619995
570.360596	1604.709717	1501.469604	-56.108765
570.786865	1461.071411	1501.469604	0
571.213074	1467.804443	1528.401855	13.466065
571.639282	1440.872192	1541.86792	-13.466064
572.06543	1535.134888	1582.266235	-26.932251
572.491516	1499.225342	1544.112305	60.597412
572.917603	1611.442749	1575.533203	-89.773926
573.343567	1514.935791	1550.845337	-58.353149
573.769531	1476.78186	1456.582642	-29.176635
574.195435	1719.171509	1752.836792	-13.466065
574.621277	1461.071411	1479.026123	-2.244385
575.047119	1535.134888	1555.333984	-6.733033
575.472839	1474.537476	1573.288818	17.954712
575.89856	1822.411621	1786.501953	-89.774048
576.324158	1548.600952	1885.253418	251.367188
576.749817	1676.528931	2524.892822	738.390747
577.175293	1508.202637	2924.386963	1153.595459
577.60083	1389.252197	2805.436523	1092.998047
578.026306	1629.397583	2542.847656	686.770874
578.451721	1609.198364	2565.29126	819.187622
578.877136	1371.297363	2888.477539	1330.89917
579.302429	1546.356567	3162.288086	1488.00354
579.727661	1629.397583	3139.844482	1205.215454
580.152832	1564.311401	2482.250244	668.81604
580.578064	1562.067017	2125.398682	469.069091
581.003113	1499.225342	1889.742065	327.674927
581.428223	1519.424438	1853.83252	296.254151
581.853271	1593.487915	1739.370605	130.172241
582.278198	1546.356567	1672.040161	89.774048
582.703125	1615.931396	1526.157471	-94.262573
583.12793	1618.175781	1674.284546	-17.954712
583.552795	1654.085449	1728.148926	78.552124
583.977539	1510.447021	1546.356567	13.466065
584.402283	1521.668823	1476.78186	-80.796631
584.826965	1595.7323	1663.062744	-35.909546
585.251587	1615.931396	1566.555786	-17.954711
585.676208	1550.845337	1443.116577	-2.244385
586.100647	1490.247925	1416.184326	-22.443482
586.525208	1620.420166	1681.017578	-11.221802
586.949524	1476.78186	1532.890503	-49.375732
587.373962	1483.514893	1503.713989	83.040893
587.798218	1537.379272	1541.86792	0
588.222534	1586.754883	1597.976685	15.710449
588.646729	1382.519165	1404.962646	58.353027
589.070984	1436.383545	1366.808716	107.72876
589.495117	1447.605225	1548.600952	-2.244263
589.919128	1564.311401	1550.845337	8.977417
590.343201	1658.574097	1678.773193	-76.307862
590.767151	1490.247925	1479.026123	-4.48877
591.191101	1564.311401	1613.687134	-20.199096
591.61499	1411.695679	1499.225342	60.597412
592.038818	1483.514893	1472.293091	-65.086182
592.462524	1474.537476	1557.578369	33.665161
592.886292	1577.777466	1559.822754	-148.126953
593.310059	1555.333984	1586.754883	40.398316
593.733582	1577.777466	1501.469604	-80.796509
594.157227	1559.822754	1501.469604	-29.176514
594.58075	1465.560059	1537.379272	-29.176514
595.004272	1429.650513	1494.736572	47.131347
595.427673	1577.777466	1597.976685	94.262695
595.851074	1449.849609	1521.668823	47.131348
596.274353	1505.958374	1600.221069	62.841797
596.697632	1519.424438	1526.157471	35.909546
597.120911	1656.329712	1615.931396	-13.466065
597.544067	1568.800171	1640.619263	47.131225
597.967224	1555.333984	1548.600952	38.153931
598.39032	1575.533203	1606.954102	-13.466186
598.813354	1725.904541	1707.949829	-76.307861
599.236328	1407.207031	1413.940063	42.642578
599.659241	1467.804443	1467.804443	35.909546
600.082153	1508.202637	1447.605225	-94.262574
600.505005	1528.401855	1416.184326	-105.484497
600.927795	1503.713989	1472.293091	-78.552246
601.350525	1588.999268	1566.555786	-80.796631
601.773254	1479.026123	1550.845337	26.932251
602.195862	1474.537476	1440.872192	58.353027
602.618408	1447.605225	1555.333984	40.398315
603.040955	1548.600952	1485.759155	-17.954712
603.46344	1577.777466	1544.112305	-60.597412
603.885925	1440.872192	1452.093994	11.221802
604.30835	1606.954102	1586.754883	29.176513
604.730652	1544.112305	1501.469604	-98.751343
605.152893	1479.026123	1580.021851	-42.642578
605.575195	1496.980957	1474.537476	-22.443481
605.997375	1532.890503	1526.157471	-92.018311
606.419495	1532.890503	1523.913086	-47.131348
606.841553	1611.442749	1595.7323	-60.597412
607.263672	1461.071411	1429.650513	-40.398315
607.685608	1559.822754	1629.397583	-4.48877
608.107605	1483.514893	1485.759155	-31.420899
608.52948	1470.048706	1465.560059	-53.86438
608.951294	1620.420166	1719.171509	17.954834
609.373108	1425.161743	1501.469604	26.932251
609.7948	1454.338257	1490.247925	-17.954712
610.216553	1494.736572	1496.980957	6.733032
610.638123	1528.401855	1566.555786	-8.977417
611.059753	1521.668823	1584.51062	92.018311
611.481262	1496.980957	1494.736572	-60.597412
611.902832	1508.202637	1485.759155	-87.529541
612.324219	1402.718262	1474.537476	78.552246
612.745605	1461.071411	1496.980957	105.484375
613.166931	1496.980957	1501.469604	0
613.588196	1548.600952	1595.7323	-15.710449
614.00946	1535.134888	1559.822754	-38.153931
614.430664	1447.605225	1443.116577	33.665283
614.851807	1566.555786	1588.999268	2.244385
615.272827	1588.999268	1501.469604	-2.244385
615.693909	1528.401855	1505.958374	-15.710449
616.114929	1667.551514	1633.88623	-118.950562
616.535889	1496.980957	1445.360962	-80.796631
616.956787	1508.202637	1575.533203	-8.977295
617.377563	1647.352295	1629.397583	-65.08606
617.79834	1654.085449	1649.59668	-58.353149
618.219055	1488.00354	1521.668823	-11.22168
618.639832	1503.713989	1577.777466	35.909546
619.060364	1494.736572	1514.935791	35.909668
619.481018	1571.044434	1568.800171	-60.597413
619.901611	1413.940063	1416.184326	-20.199218
620.322083	1512.691406	1461.071411	-74.063598
620.742493	1485.759155	1458.827026	22.443482
621.162842	1510.447021	1548.600952	-2.244384
621.583191	1479.026123	1465.560059	17.954834
622.003418	1544.112305	1573.288818	-33.665284
622.423706	1618.175781	1611.442749	-53.86438
622.843872	1604.709717	1609.198364	62.841797
623.264038	1555.333984	1618.175781	4.48877
623.684143	1519.424438	1465.560059	-87.529663
624.104126	1544.112305	1588.999268	8.977417
624.52417	1496.980957	1582.266235	74.063477
624.944031	1553.089722	1633.88623	-42.642701
625.364014	1539.623535	1523.913086	56.108765
625.783752	1510.447021	1571.044434	-17.954833
626.203552	1597.976685	1568.800171	-47.131348
626.62323	1586.754883	1550.845337	-49.375611
627.042969	1681.017578	1712.438477	-31.420898
627.462585	1665.307129	1588.999268	-71.819214
627.882141	1541.86792	1593.487915	-35.909546
628.301697	1479.026123	1555.333984	6.733032
628.72113	1824.655884	1835.877686	-74.063477
629.140625	1510.447021	1449.849609	-31.420898
629.559998	1593.487915	1550.845337	31.420898
629.979309	1593.487915	1539.623535	-22.443481
630.39856	1577.777466	1600.221069	40.398315
630.81781	1508.202637	1535.134888	-22.443482
631.237	1559.822754	1454.338257	-13.466187
631.656067	1566.555786	1521.668823	-92.01831
632.075195	1532.890503	1485.759155	-40.398315
632.494202	1416.184326	1456.582642	-2.244263
632.913208	1413.940063	1422.917358	15.71045
633.332092	1633.88623	1678.773193	13.466065
633.750977	1600.221069	1557.578369	29.176514
634.169739	1465.560059	1481.270508	6.733032
634.588562	1474.537476	1456.582642	-83.040894
635.007263	1564.311401	1530.64624	15.71045
635.425964	1479.026123	1492.492188	74.063599
635.844543	1544.112305	1591.243652	-20.199219
636.263123	1568.800171	1584.51062	-109.973145
636.681641	1481.270508	1555.333984	-13.466065
637.100037	1553.089722	1541.86792	-17.954834
637.518494	1553.089722	1627.153198	65.086059
637.936829	1586.754883	1584.51062	-38.153931
638.355164	1519.424438	1571.044434	11.221802
638.773438	1606.954102	1606.954102	13.466064
639.19165	1454.338257	1496.980957	-26.932129
639.609863	1445.360962	1454.338257	-22.443604
640.027893	1523.913086	1490.247925	-38.153931
640.445984	1416.184326	1490.247925	24.687866
640.863953	1575.533203	1595.7323	-74.063599
641.281921	1537.379272	1499.225342	-42.6427
641.699829	1425.161743	1463.315674	-2.244385
642.117676	1620.420166	1606.954102	-100.995728
642.535461	1402.718262	1485.759155	103.240112
642.953247	1514.935791	1600.221069	56.108643
643.370972	1638.375	1633.88623	69.574829
643.788635	1512.691406	1523.913086	8.977417
644.206177	1573.288818	1588.999268	0
644.623718	1642.863647	1649.59668	-6.733032
645.04126	1474.537476	1463.315674	-31.420899
645.458618	1546.356567	1494.736572	-53.864379
645.876099	1485.759155	1494.736572	-98.751342
646.293396	1548.600952	1546.356567	15.710449
646.710693	1501.469604	1523.913086	-60.597412
647.127991	1418.428711	1434.13916	-11.22168
647.545166	1541.86792	1490.247925	-26.932129
647.962341	1456.582642	1458.827026	-8.977417
648.379333	1395.985229	1454.338257	-15.710449
648.796448	1479.026123	1470.048706	0
649.213379	1472.293091	1541.86792	71.819214
649.63031	1530.64624	1492.492188	11.22168
650.04718	1553.089722	1544.112305	-67.330567
650.463989	1476.78186	1461.071411	2.244263
650.880859	1571.044434	1633.88623	47.131347
651.297546	1568.800171	1508.202637	-105.484497
651.714233	1604.709717	1519.424438	-51.619995
652.130859	1642.863647	1582.266235	-78.552246
652.547485	1463.315674	1510.447021	53.86438
652.963928	1672.040161	1651.841064	-51.619995
653.380432	1514.935791	1514.935791	74.063477
653.796814	1566.555786	1577.777466	-67.330444
654.213196	1510.447021	1555.333984	11.221802
654.629578	1725.904541	1687.75061	42.6427
655.045837	1651.841064	1539.623535	-94.262695
655.462036	1535.134888	1499.225342	-53.86438
655.878174	1454.338257	1546.356567	22.443603
656.294312	1481.270508	1474.537476	35.909546
656.710327	1467.804443	1508.202637	26.932129
657.126404	1409.451294	1470.048706	42.6427
657.542358	1766.302856	1741.61499	-42.6427
657.958252	1517.180054	1452.093994	-33.665161
658.374084	1443.116577	1501.469604	22.443482
658.789917	1597.976685	1618.175781	-20.199219
659.205688	1501.469604	1580.021851	42.642701
659.621338	1562.067017	1591.243652	13.466186
660.037048	2105.199707	2067.045654	-47.131348
660.452637	1586.754883	1566.555786	-2.244263
660.868164	1759.569824	1714.682861	-4.488769
661.283691	1404.962646	1528.401855	83.040894
661.699158	1604.709717	1593.487915	20.199096
662.114502	1676.528931	1600.221069	-83.041016
662.529846	1647.352295	1629.397583	-6.733032
662.945129	1575.533203	1602.465332	114.461792
663.360413	1427.406128	1485.759155	76.307861
663.775635	1483.514893	1523.913086	-51.620118
664.190674	1474.537476	1474.537476	-35.909668
664.605835	1672.040161	1725.904541	-35.909546
665.020813	1508.202637	1519.424438	35.909668
665.435791	1647.352295	1665.307129	-6.733032
665.850769	1550.845337	1434.13916	-112.217529
666.265625	1546.356567	1568.800171	-65.086059
666.68042	1582.266235	1665.307129	11.22168
667.095215	1559.822754	1553.089722	29.176514
667.509949	1452.093994	1557.578369	89.773926
667.924622	1485.759155	1454.338257	17.954834
668.339233	1499.225342	1467.804443	-44.887085
668.753784	1436.383545	1461.071411	89.773926
669.168335	1550.845337	1514.935791	-11.221802
669.582825	1705.705444	1636.130615	-60.597412
669.997192	1685.506226	1577.777466	-51.619996
670.41156	1546.356567	1501.469604	-40.398193
670.825867	1618.175781	1519.424438	-100.995727
671.240173	1656.329712	1615.931396	-40.398316
671.654358	1606.954102	1593.487915	-114.461914
672.068481	1548.600952	1591.243652	58.35315
672.482605	1528.401855	1544.112305	-15.710449
672.896667	1407.207031	1454.338257	42.642578
673.310669	1436.383545	1463.315674	47.131348
673.724609	1696.728027	1696.728027	-6.733032
674.138489	1519.424438	1523.913086	-20.199096
674.552307	1476.78186	1488.00354	-67.330566
674.966064	1530.64624	1501.469604	-42.6427
675.379822	1737.126343	1853.83252	51.619995
675.793579	1510.447021	1566.555786	11.221802
676.207153	1618.175781	1580.021851	-87.529541
676.620789	1613.687134	1667.551514	44.886963
677.034241	1604.709717	1615.931396	-2.244385
677.447754	1526.157471	1609.198364	4.488769
677.861206	1669.795776	1615.931396	-69.574707
678.274597	1575.533203	1638.375	-42.6427
678.687866	1537.379272	1600.221069	22.443482
679.101135	1642.863647	1530.64624	-94.262695
679.514404	1526.157471	1546.356567	-17.954834
679.927551	1474.537476	1582.266235	17.954712
680.340698	1528.401855	1562.067017	58.353028
680.753723	1436.383545	1472.293091	22.443481
681.166748	1510.447021	1476.78186	35.909546
681.579712	1492.492188	1449.849609	-2.244263
681.992615	1683.261963	1732.637573	80.796509
682.405457	1784.25769	1804.456787	-17.954834
682.818298	1687.75061	1669.795776	-62.841797
683.231018	1595.7323	1705.705444	94.262695
683.643738	1665.307129	1604.709717	-22.443482
684.056335	1463.315674	1557.578369	22.443481
684.468994	1658.574097	1618.175781	13.466064
684.881531	1546.356567	1609.198364	2.244385
685.293945	1575.533203	1568.800171	-11.221802
685.706482	1537.379272	1593.487915	-20.199218
686.118774	1665.307129	1696.728027	11.221802
686.531128	1707.949829	1730.393311	2.244263
686.943481	1514.935791	1463.315674	-20.199219
687.355713	1604.709717	1674.284546	-49.375733
687.767883	1467.804443	1458.827026	-47.131347
688.179932	1553.089722	1604.709717	17.954712
688.592041	1566.555786	1505.958374	-29.176514
689.004089	1470.048706	1443.116577	-20.199097
689.416016	1611.442749	1528.401855	-78.552246
689.827881	1582.266235	1532.890503	-65.086181
690.239868	1566.555786	1555.333984	-67.330444
690.651611	1528.401855	1530.64624	-69.574829
691.063354	1586.754883	1562.067017	-33.665161
691.475098	1454.338257	1535.134888	116.706177
691.886719	1665.307129	1678.773193	-40.398316
692.29834	1595.7323	1514.935791	-78.552246
692.7099	1573.288818	1689.994995	22.443482
693.12146	1535.134888	1615.931396	60.597412
693.532837	1611.442749	1564.311401	-22.443481
693.944214	1550.845337	1553.089722	-136.905274
694.355652	1508.202637	1445.360962	74.063598
694.766846	1501.469604	1467.804443	-11.221679
695.178101	1530.64624	1470.048706	-22.443603
695.589294	1539.623535	1629.397583	15.710449
696.000366	1454.338257	1508.202637	2.244385
696.411438	1654.085449	1698.972412	29.176514
696.82251	1492.492188	1645.108032	20.199218
697.233459	1505.958374	1510.447021	-49.375732
697.644409	1490.247925	1568.800171	53.86438
698.055298	1407.207031	1512.691406	100.995606
698.466064	1490.247925	1505.958374	-60.597412
698.876831	1647.352295	1685.506226	33.665283
699.287537	1692.23938	1669.795776	-53.86438
699.698181	1593.487915	1633.88623	31.420898
700.108826	1584.51062	1642.863647	-11.221802
700.519348	1456.582642	1472.293091	24.687866
700.92981	1436.383545	1496.980957	49.37561
701.340271	1674.284546	1773.035889	53.86438
701.750732	1764.058472	1804.456787	29.176513
702.161011	1624.908813	1620.420166	-83.040893
702.57135	1535.134888	1573.288818	100.995727
702.981567	1829.144653	1790.990723	-13.466064
703.391724	1586.754883	1613.687134	20.199219
703.80188	1418.428711	1537.379272	109.973144
704.211914	1488.00354	1440.872192	-4.488647
704.621948	1485.759155	1514.935791	-20.199096
705.031921	1546.356567	1494.736572	-22.443481
705.441895	1553.089722	1535.134888	-38.153931
705.851746	1636.130615	1692.23938	20.199097
706.261536	1757.325439	1764.058472	-193.014038
706.671265	1636.130615	1609.198364	-157.104492
707.081055	1555.333984	1593.487915	6.733033
707.490662	1631.641846	1604.709717	-15.71045
707.90033	1595.7323	1669.795776	-40.398316
708.309814	1600.221069	1490.247925	-116.706176
708.719299	1799.96814	1732.637573	-116.706177
709.128784	1739.370605	1746.10376	-38.15393
709.538147	1564.311401	1600.221069	-2.244384
709.94751	1618.175781	1712.438477	4.48877
710.35675	1479.026123	1490.247925	6.733032
710.766052	1580.021851	1517.180054	-11.22168
711.175171	1479.026123	1485.759155	42.6427
711.58429	1618.175781	1636.130615	-6.733032
711.993347	1488.00354	1461.071411	-6.733032
712.402405	1755.081055	1712.438477	-47.131226
712.811401	1562.067017	1622.664551	-22.443482
713.220276	1584.51062	1654.085449	38.153931
713.62915	1600.221069	1566.555786	-17.954834
714.037964	1454.338257	1537.379272	26.932251
714.446777	1541.86792	1654.085449	33.665283
714.855408	1584.51062	1618.175781	4.488648
715.264099	1544.112305	1474.537476	-53.86438
715.672668	1532.890503	1600.221069	92.01831
716.081177	1564.311401	1627.153198	103.240113
716.489746	1490.247925	1503.713989	35.909546
716.898132	1600.221069	1618.175781	-56.108764
717.306519	1562.067017	1546.356567	-15.71045
717.714844	1488.00354	1562.067017	-29.176514
718.123108	1613.687134	1665.307129	-22.443482
718.531372	1521.668823	1514.935791	83.040894
718.939514	1636.130615	1687.75061	17.954834
719.347595	1568.800171	1604.709717	29.176514
719.755676	1663.062744	1681.017578	-42.642578
720.163696	1546.356567	1580.021851	-11.221679
720.571716	1505.958374	1463.315674	-49.375732
720.979614	1562.067017	1562.067017	-58.353028
721.387451	1613.687134	1546.356567	-141.394043
721.795227	1712.438477	1705.705444	-31.420899
722.202942	1544.112305	1557.578369	-40.398316
722.610718	1483.514893	1434.13916	80.796508
723.018311	1530.64624	1550.845337	83.040894
723.425903	1548.600952	1593.487915	-71.819092
723.833374	1472.293091	1485.759155	-2.244385
724.240906	1458.827026	1447.605225	31.420899
724.648376	1496.980957	1553.089722	-51.619995
725.055725	1546.356567	1584.51062	-35.909546
725.463013	1642.863647	1620.420166	-87.529663
725.8703	1548.600952	1539.623535	4.48877
726.277466	1786.501953	1723.660156	-49.37561
726.684631	1492.492188	1526.157471	69.574829
727.091797	1510.447021	1597.976685	4.48877
727.498779	1618.175781	1674.284546	-65.086059
727.905823	1620.420166	1654.085449	-11.221802
728.312805	1730.393311	1786.501953	15.710449
728.719666	1757.325439	1739.370605	76.307862
729.126526	1681.017578	1721.415894	2.244385
729.533264	1564.311401	1485.759155	-76.307861
729.940063	1584.51062	1665.307129	-13.466186
730.34668	1532.890503	1620.420166	40.398315
730.753357	1613.687134	1687.75061	-26.932251
731.159851	1584.51062	1546.356567	-51.620117
731.566406	1492.492188	1528.401855	-8.977295
731.9729	1537.379272	1624.908813	-35.909668
732.379272	1595.7323	1541.86792	-112.217407
732.785645	1580.021851	1624.908813	-42.642579
733.191895	1548.600952	1393.740845	-85.285278
733.598206	1544.112305	1541.86792	83.040893
734.004333	1539.623535	1548.600952	6.733032
734.410522	1683.261963	1701.216675	58.353027
734.816528	1555.333984	1445.360962	-67.330444
735.222656	1508.202637	1505.958374	-56.108643
735.628662	1532.890503	1499.225342	-51.619995
736.034546	1510.447021	1514.935791	65.086182
736.44043	1595.7323	1553.089722	-51.619995
736.846252	1494.736572	1600.221069	17.954834
737.252014	1615.931396	1582.266235	2.244385
737.657715	1537.379272	1550.845337	-24.687866
738.063354	1665.307129	1602.465332	-96.506958
738.468933	1555.333984	1586.754883	-26.932129
738.874512	1521.668823	1580.021851	-8.977417
739.280029	1546.356567	1514.935791	-22.443481
739.685486	1447.605225	1485.759155	24.687866
740.090881	1725.904541	1687.75061	-65.08606
740.496216	1537.379272	1562.067017	26.932129
740.90155	1645.108032	1703.46106	-6.733032
741.306702	1645.108032	1663.062744	-26.932251
741.711914	1615.931396	1575.533203	-51.619995
742.117004	1633.88623	1627.153198	15.71045
742.522095	1523.913086	1483.514893	-6.733032
742.927124	1555.333984	1566.555786	-49.37561
743.332031	1566.555786	1580.021851	4.488648
743.737	1546.356567	1591.243652	-65.086059
744.141785	1562.067017	1564.311401	-49.375611
744.546631	1597.976685	1595.7323	-47.131348
744.951355	1557.578369	1499.225342	47.131348
745.356079	1615.931396	1640.619263	-8.977294
745.76062	1420.673096	1454.338257	-13.466065
746.165283	1562.067017	1618.175781	35.909668
746.569824	1553.089722	1577.777466	-31.420899
746.974243	1526.157471	1541.86792	67.330444
747.378723	1559.822754	1615.931396	-44.886963
747.78302	1519.424438	1510.447021	-20.199096
748.187378	1544.112305	1537.379272	-60.597412
748.591614	1479.026123	1521.668823	42.6427
748.99585	1622.664551	1645.108032	-15.710449
749.399963	1499.225342	1541.86792	-92.018311
749.804077	1467.804443	1544.112305	65.08606
750.20813	1523.913086	1521.668823	11.221802
750.612122	1577.777466	1739.370605	-15.710449
751.016052	1512.691406	1602.465332	-15.710449
751.419922	1582.266235	1611.442749	8.977417
751.823792	1523.913086	1638.375	51.620117
752.227478	1512.691406	1508.202637	29.176514
752.631226	1737.126343	1705.705444	-42.6427
753.034851	1458.827026	1582.266235	22.443482
753.438477	1546.356567	1600.221069	33.665284
753.842102	1568.800171	1535.134888	42.642578
754.245544	1672.040161	1609.198364	0
754.648987	1532.890503	1526.157471	-143.638306
755.052368	1483.514893	1443.116577	-17.954834
755.45575	1663.062744	1597.976685	-85.285278
755.859009	1546.356567	1557.578369	-42.642578
756.262268	1624.908813	1537.379272	-134.660888
756.665405	1514.935791	1485.759155	-6.733154
757.068542	1600.221069	1564.311401	-33.665283
757.47168	1638.375	1651.841064	-44.887085
757.874634	1492.492188	1505.958374	11.221801
758.277588	1476.78186	1467.804443	-89.774047
758.68042	1454.338257	1539.623535	-22.443482
759.083374	1532.890503	1602.465332	47.131348
759.486084	1528.401855	1503.713989	-74.063598
759.888916	1656.329712	1573.288818	-105.484375
760.291504	1575.533203	1582.266235	-67.330566
760.694214	1595.7323	1600.221069	-112.217407
761.096802	1431.894775	1454.338257	-38.15393
761.499268	1456.582642	1638.375	92.01831
761.901733	1488.00354	1409.451294	-49.375732
762.304199	1530.64624	1510.447021	11.22168
762.706543	1564.311401	1647.352295	-26.932129
763.108826	1501.469604	1777.524658	94.262696
763.511108	1544.112305	1876.276001	2.244262
763.913208	1564.311401	1880.764648	11.221802
764.315369	1496.980957	1835.877686	-29.176514
764.717529	1481.270508	1676.528931	22.443481
765.119568	1685.506226	1784.25769	-4.488648
765.521545	1611.442749	1658.574097	40.398315
765.923462	1611.442749	1564.311401	-58.353027
766.325317	1499.225342	1622.664551	11.221679
766.727112	1400.473877	1573.288818	-2.244263
767.128845	1611.442749	1586.754883	-13.466064
767.530518	1481.270508	1470.048706	-62.841797
767.932251	1676.528931	1701.216675	-53.86438
768.333862	1447.605225	1425.161743	29.176635
768.735413	1548.600952	1505.958374	-49.37561
769.136841	1674.284546	1674.284546	-11.221802
769.538269	1669.795776	1728.148926	6.733155
769.939636	1530.64624	1633.88623	76.307862
770.341003	1452.093994	1431.894775	15.710449
770.742249	1559.822754	1555.333984	-53.86438
771.143433	1584.51062	1544.112305	-20.199219
771.544617	1519.424438	1521.668823	-56.108764
771.94574	1568.800171	1689.994995	6.733032
772.346802	1557.578369	1701.216675	15.710449
772.747803	1582.266235	1797.723755	2.244385
773.148682	1577.777466	1683.261963	-13.466065
773.549622	1566.555786	1674.284546	4.488648
773.950439	1618.175781	1676.528931	26.932251
774.351196	1458.827026	1588.999268	-2.244384
774.751892	1698.972412	1712.438477	-15.710449
775.152588	1530.64624	1566.555786	11.22168
775.553162	1692.23938	1676.528931	-62.841797
775.953735	1732.637573	1741.61499	-17.954712
776.354309	1499.225342	1595.7323	31.420898
776.754639	1454.338257	1505.958374	44.887085
777.15509	1553.089722	1523.913086	-8.977417
777.55542	1496.980957	1541.86792	-33.665283
777.95575	1541.86792	1557.578369	-143.638306
778.355896	1429.650513	1568.800171	112.217407
778.756104	1541.86792	1517.180054	13.466064
779.156189	1503.713989	1535.134888	-11.221801
779.556274	1510.447021	1541.86792	-80.796508
779.956299	1557.578369	1474.537476	-40.398315
780.356201	1452.093994	1456.582642	6.733032
780.756165	1476.78186	1584.51062	60.597412
781.156006	1564.311401	1580.021851	-8.977417
781.555786	1467.804443	1514.935791	-33.665283
781.955505	1488.00354	1537.379272	-53.86438
782.355225	1649.59668	1654.085449	-71.819214
782.754761	1591.243652	1517.180054	20.199097
783.154358	1512.691406	1584.51062	-67.330444
783.553894	1429.650513	1499.225342	38.15393
783.953369	1384.763428	1595.7323	49.375732
784.352783	1454.338257	1532.890503	62.841797
784.752075	1620.420166	1685.506226	-4.48877
785.151367	1555.333984	1470.048706	15.71045
785.550598	1591.243652	1611.442749	-22.443481
785.949768	1862.809814	1654.085449	-107.728759
786.348877	1575.533203	1535.134888	-100.995727
786.747986	1490.247925	1550.845337	6.733032
787.147034	1548.600952	1539.623535	11.221802
787.545959	1505.958374	1503.713989	-31.420898
787.944885	1701.216675	1647.352295	-188.525269
788.34375	1488.00354	1568.800171	49.375732
788.742493	1429.650513	1481.270508	65.086059
789.141235	1476.78186	1479.026123	-44.887085
789.539917	1535.134888	1494.736572	-92.018311
789.938538	1519.424438	1494.736572	-42.642578
790.337158	1470.048706	1564.311401	22.443482
790.735718	1766.302856	1658.574097	-103.240112
791.134094	1474.537476	1519.424438	-114.461792
791.532532	1602.465332	1640.619263	49.375732
791.930847	1618.175781	1609.198364	44.886963
792.329224	1640.619263	1571.044434	-44.886963
792.727417	1530.64624	1485.759155	-94.262695
793.12561	1528.401855	1508.202637	-67.330444
793.523682	1476.78186	1458.827026	-13.466186
793.921753	1479.026123	1548.600952	-24.687866
794.319824	1510.447021	1620.420166	-83.040893
794.717773	1550.845337	1663.062744	8.977417
795.115723	1638.375	1710.194092	-44.887085
795.51355	1559.822754	1739.370605	69.574829
795.911377	1586.754883	1669.795776	-20.199097
796.309082	1869.542969	1862.809814	-132.416626
796.706787	1562.067017	1562.067017	-67.330445
797.10437	1535.134888	1602.465332	-17.954834
797.501953	1672.040161	1595.7323	-24.687866
797.899536	1553.089722	1591.243652	-8.977417
798.296936	1526.157471	1566.555786	-31.420899
798.694397	1548.600952	1512.691406	-100.995727
799.091736	1568.800171	1562.067017	-103.240112
799.489014	1521.668823	1557.578369	33.665161
799.88623	1795.47937	1746.10376	-157.10437
800.283447	1562.067017	1658.574097	-87.529541
800.680542	1638.375	1743.859375	78.552124
801.077637	1472.293091	1548.600952	2.244385
801.47467	1555.333984	1568.800171	62.841797
801.871643	1597.976685	1577.777466	-20.199219
802.268555	1539.623535	1588.999268	0
802.665405	1539.623535	1541.86792	49.375733
803.062256	1719.171509	1689.994995	-74.063477
803.458923	1611.442749	1600.221069	-56.108765
803.855652	1508.202637	1526.157471	-107.72876
804.252258	1903.20813	1912.185547	-13.466065
804.648804	1546.356567	1566.555786	58.35315
805.04541	1519.424438	1573.288818	22.443482
805.441833	1665.307129	1764.058472	20.199097
805.838257	1523.913086	1548.600952	8.977417
806.234619	1642.863647	1734.881958	-42.642578
806.630859	1602.465332	1611.442749	-94.262695
807.0271	1512.691406	1463.315674	-62.841797
807.423279	1445.360962	1429.650513	-17.954834
807.819458	1678.773193	1640.619263	-83.040893
808.215515	1434.13916	1481.270508	44.886963
808.611572	1795.47937	1824.655884	-8.977417
809.007507	1591.243652	1532.890503	-62.841797
809.403381	1537.379272	1609.198364	-51.620117
809.799194	1514.935791	1499.225342	2.244263
810.195068	1602.465332	1811.189819	150.37146
810.590759	1537.379272	1685.506226	148.126954
810.98645	1564.311401	1739.370605	-29.176513
811.38208	1674.284546	1853.83252	-20.199097
811.777649	1550.845337	1777.524658	56.108765
812.173157	1777.524658	1885.253418	-42.6427
812.568665	1472.293091	1667.551514	15.710449
812.96405	1672.040161	1750.592407	0
813.359375	1521.668823	1685.506226	-35.909668
813.754639	1470.048706	1537.379272	-62.841675
814.149841	1564.311401	1528.401855	-89.773925
814.545105	1568.800171	1676.528931	-6.733154
814.940186	1719.171509	1728.148926	-114.461792
815.335266	1546.356567	1606.954102	58.35315
815.730347	1725.904541	1838.12207	33.665283
816.125244	1494.736572	1537.379272	-62.841797
816.520203	1730.393311	1651.841064	-6.733155
816.914978	1479.026123	1517.180054	0
817.309753	1452.093994	1553.089722	2.244263
817.704468	1541.86792	1631.641846	69.574829
818.099182	1707.949829	1741.61499	38.153931
818.493774	1389.252197	1514.935791	40.398316
818.888367	1591.243652	1730.393311	49.375611
819.282898	1676.528931	1595.7323	-78.552246
819.677307	1725.904541	1685.506226	-2.244385
820.071716	1546.356567	1521.668823	29.176636
820.466003	1519.424438	1490.247925	-42.642578
820.860291	1571.044434	1530.64624	-47.131348
821.254517	1689.994995	1734.881958	-112.217529
821.648743	1517.180054	1505.958374	-17.954712
822.042786	1519.424438	1559.822754	-42.642578
822.43689	1557.578369	1508.202637	-145.88269
822.830872	1609.198364	1602.465332	-38.15393
823.224792	1470.048706	1465.560059	4.48877
823.618774	1575.533203	1512.691406	-22.443481
824.012512	1434.13916	1409.451294	-4.488647
824.406311	1602.465332	1627.153198	11.221802
824.799988	1544.112305	1535.134888	-60.597412
825.193665	1593.487915	1559.822754	-78.552124
825.58728	1618.175781	1638.375	-121.194824
825.980835	1593.487915	1676.528931	2.244385
826.374329	1530.64624	1672.040161	-40.398315
826.767761	1730.393311	1831.389038	-24.687867
827.161194	1613.687134	1633.88623	-2.244385
827.554443	1535.134888	1636.130615	-40.398316
827.947754	1541.86792	1553.089722	-107.72876
828.340942	1629.397583	1651.841064	-58.353149
828.734131	1600.221069	1622.664551	-6.733154
829.127136	1490.247925	1573.288818	6.733032
829.520264	1555.333984	1454.338257	-112.217407
829.913208	1692.23938	1658.574097	-67.330567
830.306152	1566.555786	1573.288818	11.22168
830.699097	1548.600952	1508.202637	11.221802
831.091797	1528.401855	1591.243652	69.57483
831.484619	1494.736572	1550.845337	-56.108764
831.877319	1748.348022	1797.723755	26.932251
832.27002	1714.682861	1698.972412	0
832.662537	1568.800171	1582.266235	-22.443604
833.055054	1389.252197	1492.492188	76.307862
833.44751	1804.456787	1761.814209	6.733032
833.839966	1449.849609	1510.447021	116.706177
834.232361	1436.383545	1458.827026	71.819092
834.624634	1467.804443	1505.958374	-13.466186
835.016907	1651.841064	1606.954102	-71.819213
835.409058	1512.691406	1530.64624	13.466065
835.801208	1564.311401	1523.913086	-65.086059
836.193298	1496.980957	1539.623535	8.977417
836.585327	1685.506226	1651.841064	-80.796509
836.977295	1490.247925	1530.64624	49.37561
837.369202	1532.890503	1514.935791	-6.733032
837.761047	1485.759155	1492.492188	6.733033
838.152832	1681.017578	1651.841064	-44.886963
838.544617	1606.954102	1658.574097	69.574829
838.936218	1584.51062	1564.311401	24.687744
839.327942	1539.623535	1627.153198	74.063599
839.719421	1523.913086	1546.356567	78.552246
840.111023	1559.822754	1669.795776	67.330444
840.50238	1615.931396	1642.863647	-60.597412
840.89386	1474.537476	1548.600952	-56.108765
841.285217	1651.841064	1732.637573	-40.398315
841.676453	1757.325439	1714.682861	-100.995727
842.067749	1586.754883	1638.375	-76.307862
842.458862	1591.243652	1674.284546	-56.108764
842.849976	1663.062744	1698.972412	-38.153931
843.241028	1606.954102	1642.863647	-78.552247
843.632019	1470.048706	1656.329712	107.72876
844.022949	1544.112305	1566.555786	-49.375733
844.413879	1508.202637	1553.089722	-33.665161
844.804749	1501.469604	1566.555786	0
845.195496	1490.247925	1519.424438	-47.131348
845.586182	1609.198364	1573.288818	-29.176513
845.976807	1449.849609	1476.78186	80.796631
846.367432	1546.356567	1521.668823	-69.574707
846.757996	1496.980957	1568.800171	31.420898
847.148499	1611.442749	1645.108032	33.665283
847.538879	1656.329712	1676.528931	4.488769
847.92926	1597.976685	1546.356567	-53.86438
848.319641	1903.20813	1804.456787	-112.217407
848.709839	1588.999268	1548.600952	-80.796631
849.100098	1588.999268	1535.134888	-123.439209
849.490234	1461.071411	1526.157471	42.642578
849.88031	1559.822754	1588.999268	-13.466187
850.270325	1505.958374	1566.555786	69.574829
850.660339	1674.284546	1672.040161	-65.086182
851.050171	1667.551514	1649.59668	33.665161
851.440125	1660.818481	1580.021851	-74.063598
851.829895	1440.872192	1539.623535	35.909668
852.219604	1564.311401	1582.266235	-26.932129
852.609314	1501.469604	1562.067017	49.375733
852.998901	1528.401855	1591.243652	29.176514
853.38855	1609.198364	1541.86792	-47.131347
853.778015	1566.555786	1604.709717	-24.687866
854.16748	1620.420166	1537.379272	-42.6427
854.556885	1636.130615	1654.085449	-71.819214
854.946228	1620.420166	1571.044434	-78.552246
855.335571	1541.86792	1526.157471	24.687866
855.724731	1562.067017	1537.379272	-107.72876
856.113953	1505.958374	1499.225342	-80.796631
856.503052	1501.469604	1440.872192	-49.37561
856.892151	1472.293091	1548.600952	-42.642578
857.281067	1546.356567	1557.578369	33.665284
857.670105	1492.492188	1449.849609	-11.22168
858.05896	1649.59668	1649.59668	-40.398316
858.447754	1620.420166	1580.021851	-44.886963
858.836609	1712.438477	1739.370605	103.240112
859.225281	1595.7323	1620.420166	47.131347
859.613892	1685.506226	1606.954102	-83.040894
860.002502	1501.469604	1494.736572	-78.552246
860.391052	1505.958374	1541.86792	-33.665283
860.779541	1537.379272	1577.777466	-65.086181
861.167969	1696.728027	1734.881958	-65.086181
861.556335	1566.555786	1602.465332	17.954834
861.944702	1492.492188	1501.469604	35.909667
862.332947	1523.913086	1557.578369	92.01831
862.721069	1624.908813	1669.795776	-42.642578
863.109253	1544.112305	1571.044434	-76.307862
863.497314	1602.465332	1591.243652	-20.199097
863.885376	1595.7323	1586.754883	-103.240112
864.273315	1573.288818	1665.307129	17.954834
864.661255	1422.917358	1485.759155	-15.710327
865.049072	1505.958374	1505.958374	0
865.43689	1436.383545	1474.537476	92.01831
865.824707	1710.194092	1674.284546	-118.95044
866.21228	1642.863647	1672.040161	31.420899
866.599915	1600.221069	1647.352295	-2.244384
866.987488	1600.221069	1602.465332	-22.443603
867.375061	1476.78186	1503.713989	58.353028
867.762451	1631.641846	1696.728027	6.733154
868.149841	1517.180054	1566.555786	11.221801
868.53717	1687.75061	1591.243652	-105.484375
868.924438	1604.709717	1582.266235	-103.240113
869.311707	1555.333984	1588.999268	6.733033
869.698853	1631.641846	1640.619263	8.977417
870.085938	1577.777466	1649.59668	-17.954712
870.472961	1526.157471	1627.153198	35.909546
870.859985	1588.999268	1588.999268	-44.886963
871.246887	1660.818481	1660.818481	17.954712
871.633789	1640.619263	1503.713989	-109.973023
872.020569	1640.619263	1582.266235	-74.063477
872.407349	1853.83252	1844.855103	-35.909668
872.794067	1674.284546	1660.818481	38.153931
873.180725	1743.859375	1692.23938	-114.461792
873.567322	1580.021851	1620.420166	2.244384
873.953796	1544.112305	1537.379272	26.932129
874.340332	1553.089722	1629.397583	15.710449
874.726624	1633.88623	1582.266235	4.48877
875.113037	1452.093994	1472.293091	17.954712
875.499329	1467.804443	1544.112305	103.239991
875.885559	1535.134888	1530.64624	96.506958
876.271729	1521.668823	1505.958374	44.886963
876.657898	1555.333984	1544.112305	-8.977417
877.044006	1499.225342	1535.134888	-29.176636
877.429932	1645.108032	1615.931396	29.176514
877.815918	1580.021851	1467.804443	-26.932129
878.201782	1665.307129	1620.420166	4.488647
878.587585	1739.370605	1804.456787	-80.796508
878.973389	1631.641846	1615.931396	-69.574829
879.35907	1701.216675	1764.058472	26.932251
879.744751	1508.202637	1559.822754	96.50708
880.13031	1393.740845	1458.827026	92.01831
880.51593	1535.134888	1640.619263	-17.954834
880.901367	1488.00354	1494.736572	-51.619995
881.286804	1595.7323	1669.795776	76.307861
881.67218	1665.307129	1712.438477	-62.841797
882.057434	1470.048706	1496.980957	-74.063477
882.442749	1573.288818	1532.890503	-20.199096
882.827942	1611.442749	1609.198364	35.909546
883.213013	1541.86792	1553.089722	2.244385
883.598145	1672.040161	1687.75061	-6.733032
883.983154	1620.420166	1642.863647	-8.977417
884.368042	1476.78186	1492.492188	17.954712
884.753052	1449.849609	1420.673096	-17.954834
885.137817	1521.668823	1485.759155	-29.176635
885.522644	1674.284546	1764.058472	-22.443482
885.907349	1539.623535	1472.293091	-78.552124
886.292053	1535.134888	1555.333984	-62.841797
886.676636	1602.465332	1517.180054	-51.619995
887.061157	1474.537476	1557.578369	31.420898
887.44574	1546.356567	1530.64624	-78.552124
887.830078	1467.804443	1582.266235	58.353028
888.214539	1732.637573	1759.569824	-78.552124
888.598816	1728.148926	1658.574097	-35.909546
888.983093	1595.7323	1620.420166	-20.199097
889.367249	1562.067017	1528.401855	-96.506958
889.751465	1541.86792	1523.913086	-38.153931
890.135498	1602.465332	1539.623535	-65.08606
890.519531	1656.329712	1633.88623	-11.22168
890.903503	1582.266235	1544.112305	-26.932251
891.287415	1764.058472	1629.397583	-42.642578
891.671326	1647.352295	1647.352295	-76.307861
892.055054	1514.935791	1562.067017	71.819092
892.438843	1535.134888	1555.333984	0
892.82251	1521.668823	1539.623535	-83.041015
893.206116	1456.582642	1456.582642	2.244384
893.589661	1528.401855	1568.800171	-92.01831
893.973206	1499.225342	1436.383545	-6.733154
894.356628	1508.202637	1562.067017	-20.199097
894.73999	1586.754883	1629.397583	-13.466065
895.123352	1633.88623	1618.175781	49.375733
895.506592	1535.134888	1593.487915	-22.443482
895.889832	1429.650513	1503.713989	4.488647
896.272949	1627.153198	1584.51062	-67.330444
896.656067	1600.221069	1640.619263	15.710327
897.039063	1627.153198	1654.085449	60.597412
897.422058	1571.044434	1494.736572	-89.773926
897.804993	1521.668823	1501.469604	-51.620117
898.187866	1550.845337	1562.067017	65.086059
898.570618	1528.401855	1582.266235	76.307862
898.953369	1633.88623	1508.202637	-92.01831
899.336121	1503.713989	1510.447021	-6.733032
899.718689	1568.800171	1602.465332	-20.199219
900.101257	1528.401855	1440.872192	11.22168
900.483704	1573.288818	1582.266235	24.687867
900.866211	1521.668823	1528.401855	22.443482
901.248596	1488.00354	1452.093994	60.597412
901.63092	1647.352295	1557.578369	-38.153931
902.013184	1505.958374	1535.134888	-33.665283
902.395386	1548.600952	1647.352295	49.375733
902.777588	1505.958374	1499.225342	-2.244385
903.159668	1638.375	1611.442749	-49.375732
903.541687	1528.401855	1539.623535	-47.131347
903.923645	1622.664551	1532.890503	-74.063599
904.305603	1467.804443	1557.578369	-8.977417
904.6875	1517.180054	1481.270508	15.710449
905.069275	1456.582642	1461.071411	24.687866
905.45105	1523.913086	1606.954102	-15.710449
905.832642	1503.713989	1492.492188	60.597412
906.214294	1615.931396	1627.153198	-29.176513
906.595825	1611.442749	1647.352295	40.398315
906.977417	1564.311401	1548.600952	29.176514
907.358826	1593.487915	1559.822754	-47.131348
907.740234	1557.578369	1481.270508	-22.443481
908.121582	1649.59668	1665.307129	-22.443482
908.502869	1707.949829	1683.261963	-22.443603
908.884033	1694.483643	1674.284546	-15.71045
909.265198	1537.379272	1577.777466	-31.420898
909.646301	1573.288818	1604.709717	35.909546
910.027344	1562.067017	1656.329712	29.176635
910.408325	1723.660156	1669.795776	-49.37561
910.789246	1532.890503	1604.709717	-58.353027
911.170105	1624.908813	1743.859375	-47.131347
911.550903	1633.88623	1663.062744	-56.108764
911.931641	1505.958374	1698.972412	85.285278
912.312317	1492.492188	1620.420166	-20.199097
912.692932	1447.605225	1692.23938	94.262695
913.073547	1642.863647	1712.438477	-60.597412
913.453979	1505.958374	1618.175781	-24.687866
913.834473	1553.089722	1580.021851	74.063476
914.214783	1496.980957	1588.999268	67.330444
914.595154	1730.393311	1730.393311	2.244262
914.975464	1624.908813	1615.931396	-17.954711
915.355652	1640.619263	1597.976685	-60.597412
915.73584	1638.375	1638.375	53.86438
916.115845	1716.927124	1703.46106	-49.37561
916.495972	1532.890503	1665.307129	65.086182
916.875854	1609.198364	1595.7323	6.733032
917.255859	1633.88623	1656.329712	40.398316
917.63562	1530.64624	1512.691406	11.22168
918.015503	1683.261963	1737.126343	-24.687866
918.395203	1723.660156	1663.062744	-139.149536
918.774902	1526.157471	1566.555786	-31.420899
919.15448	1395.985229	1454.338257	44.886963
919.534058	1883.009033	1914.429932	-62.841797
919.913574	1593.487915	1597.976685	15.710449
920.292969	1535.134888	1568.800171	-8.977417
920.672363	1613.687134	1604.709717	-58.35315
921.051636	1532.890503	1496.980957	-58.353027
921.430969	1658.574097	1588.999268	-152.615723
921.810181	1620.420166	1627.153198	-74.063599
922.189331	1492.492188	1470.048706	-67.330445
922.56842	1559.822754	1485.759155	-107.72876
922.947388	1669.795776	1773.035889	-40.398193
923.326416	1503.713989	1512.691406	20.199097
923.705261	1546.356567	1557.578369	35.909668
924.084106	1835.877686	1876.276001	49.375732
924.462891	1593.487915	1638.375	-17.954712
924.841675	1618.175781	1606.954102	40.398316
925.220337	1532.890503	1573.288818	6.733032
925.598938	1526.157471	1553.089722	-13.466065
925.977478	1822.411621	1923.407349	26.932129
926.355957	1548.600952	1499.225342	-8.977417
926.734436	1544.112305	1483.514893	-76.307862
927.112732	1766.302856	1755.081055	-20.199096
927.491089	1512.691406	1535.134888	-6.733032
927.869324	1562.067017	1580.021851	-92.018311
928.247559	1685.506226	1689.994995	-123.439209
928.625671	1530.64624	1591.243652	-15.710449
929.003723	1620.420166	1622.664551	15.710449
929.381775	1537.379272	1546.356567	0
929.759705	1483.514893	1532.890503	38.15393
930.137634	1458.827026	1514.935791	2.244385
930.515381	1584.51062	1553.089722	-15.710449
930.89325	1856.076782	1925.651611	4.48877
931.270935	1636.130615	1651.841064	78.552246
931.64856	1476.78186	1476.78186	-26.932251
932.026123	1492.492188	1458.827026	-33.665162
932.403687	1541.86792	1485.759155	-11.22168
932.78125	1582.266235	1517.180054	35.909546
933.15863	1961.561279	1887.497681	-125.683593
933.536011	1562.067017	1494.736572	-44.886963
933.913208	1488.00354	1476.78186	24.687866
934.290527	1508.202637	1537.379272	0
934.667664	1858.321167	1835.877686	-47.131348
935.0448	1548.600952	1562.067017	11.221802
935.421814	1508.202637	1571.044434	69.574829
935.798889	1602.465332	1593.487915	53.86438
936.175842	1573.288818	1514.935791	-42.642578
936.552673	1580.021851	1528.401855	15.710449
936.929504	1566.555786	1523.913086	-51.619995
937.306274	1537.379272	1512.691406	-24.687866
937.683044	1631.641846	1597.976685	-125.683472
938.05957	1472.293091	1564.311401	47.131347
938.436218	1779.768921	1784.25769	24.687866
938.812744	1479.026123	1492.492188	-24.687866
939.189148	1553.089722	1544.112305	-24.687867
939.565613	1510.447021	1559.822754	33.665284
939.941956	1481.270508	1456.582642	-15.710449
940.318237	1647.352295	1665.307129	-15.710449
940.694458	1647.352295	1586.754883	-78.552124
941.070557	1465.560059	1485.759155	-4.488648
941.446655	1629.397583	1683.261963	40.398193
941.822693	1624.908813	1649.59668	-58.353027
942.198669	1562.067017	1633.88623	24.687866
942.574646	1571.044434	1555.333984	-67.330445
942.950562	1588.999268	1624.908813	31.420898
943.326294	1519.424438	1481.270508	-31.420898
943.702026	1586.754883	1597.976685	8.977417
944.077698	1535.134888	1494.736572	-58.353028
944.453369	1456.582642	1447.605225	62.841796
944.828918	1537.379272	1553.089722	15.71045
945.204468	1535.134888	1539.623535	15.710449
945.579834	1584.51062	1606.954102	-15.710449
945.955261	1629.397583	1627.153198	-6.733032
946.330627	1452.093994	1526.157471	74.063477
946.705811	1512.691406	1566.555786	-20.199218
947.081055	1577.777466	1512.691406	-103.23999
947.456177	1602.465332	1638.375	31.420898
947.831238	1449.849609	1499.225342	76.307862
948.206238	1559.822754	1586.754883	67.330444
948.581238	1479.026123	1492.492188	-6.733032
948.956116	1568.800171	1490.247925	-11.221802
949.330933	1586.754883	1472.293091	-109.973023
949.705811	1535.134888	1606.954102	29.176513
950.080505	1523.913086	1481.270508	60.597534
950.455139	1517.180054	1537.379272	-62.841797
950.829773	1514.935791	1449.849609	-33.665283
951.204346	2116.421387	2114.177002	58.353027
951.578735	1883.009033	1889.742065	11.22168
951.953186	1595.7323	1638.375	31.420898
952.327515	1622.664551	1566.555786	-87.529663
952.701843	1483.514893	1528.401855	17.954711
953.076172	1494.736572	1483.514893	-33.665161
953.450195	1530.64624	1573.288818	-13.466186
953.824341	1562.067017	1622.664551	17.954834
954.198486	1496.980957	1458.827026	-8.977417
954.572449	1799.96814	1743.859375	-100.995728
954.94635	1571.044434	1600.221069	-89.773926
955.320251	1654.085449	1595.7323	24.687744
955.694092	1523.913086	1562.067017	-2.244263
956.067871	1651.841064	1640.619263	-11.221801
956.441589	1672.040161	1768.547241	-26.932129
956.815125	1499.225342	1555.333984	-60.597534
957.188721	1523.913086	1562.067017	67.330566
957.562256	1505.958374	1505.958374	-31.420898
957.93573	1461.071411	1541.86792	89.773926
958.309021	1535.134888	1510.447021	-76.307862
958.682373	1492.492188	1474.537476	-47.131226
959.055664	1526.157471	1458.827026	-94.262696
959.428955	1501.469604	1526.157471	-13.466064
959.802063	1566.555786	1544.112305	-107.72876
960.17511	1550.845337	1519.424438	-2.244385
960.548157	1465.560059	1553.089722	13.466064
960.921143	1553.089722	1548.600952	-24.687867
961.294128	1532.890503	1528.401855	29.176514
961.666809	1463.315674	1496.980957	47.131347
962.039612	1622.664551	1586.754883	-53.86438
962.412415	1431.894775	1539.623535	56.108765
962.785095	1445.360962	1443.116577	24.687744
963.157715	1463.315674	1490.247925	35.909668
963.530151	1595.7323	1483.514893	-80.796509
963.902649	1530.64624	1573.288818	24.687744
964.275146	1597.976685	1548.600952	-22.443482
964.647522	1420.673096	1485.759155	141.393921
965.019714	1496.980957	1479.026123	-8.977417
965.392029	1575.533203	1620.420166	24.687866
965.76416	1539.623535	1595.7323	60.597534
966.136292	1523.913086	1602.465332	-22.443482
966.508423	1456.582642	1467.804443	100.995727
966.880371	1523.913086	1575.533203	-100.995728
967.252319	1681.017578	1761.814209	8.977417
967.624207	1505.958374	1544.112305	-56.108765
967.996094	1562.067017	1550.845337	-35.909546
968.367737	1611.442749	1645.108032	2.244385
968.739441	1544.112305	1548.600952	-8.977417
969.111084	1445.360962	1571.044434	53.86438
969.482666	1510.447021	1481.270508	-80.796508
969.854248	1481.270508	1479.026123	-22.443482
970.225586	1472.293091	1555.333984	58.353149
970.596985	1537.379272	1526.157471	-53.864379
970.968323	1523.913086	1532.890503	67.330566
971.339661	1669.795776	1633.88623	-105.484375
971.710754	1640.619263	1636.130615	-4.488648
972.081909	1642.863647	1694.483643	44.886963
972.453064	1584.51062	1553.089722	-67.330566
972.824097	1829.144653	1795.47937	56.108765
973.194946	1512.691406	1465.560059	-76.307861
973.565918	1622.664551	1528.401855	-65.086182
973.936768	1615.931396	1654.085449	40.398316
974.307556	1496.980957	1436.383545	-22.443481
974.678284	1436.383545	1559.822754	92.01831
975.048828	1595.7323	1622.664551	26.932251
975.419495	1667.551514	1656.329712	-125.683594
975.790039	1550.845337	1624.908813	-4.48877
976.160522	1568.800171	1629.397583	53.86438
976.530884	1575.533203	1521.668823	-35.909668
976.901245	1562.067017	1638.375	-58.353028
977.271606	1611.442749	1492.492188	44.886963
977.641846	1692.23938	1775.280273	33.665161
978.012024	1577.777466	1645.108032	38.15393
978.382019	1535.134888	1541.86792	-33.665284
978.752136	1732.637573	1826.900269	31.420899
979.122131	1743.859375	1656.329712	-62.841797
979.492065	1485.759155	1508.202637	-42.642578
979.861877	1586.754883	1494.736572	-40.398316
980.231689	1463.315674	1447.605225	4.488769
980.60144	1454.338257	1479.026123	24.687866
980.971191	1559.822754	1615.931396	22.443481
981.34082	1496.980957	1483.514893	-17.954834
981.710266	1620.420166	1564.311401	-94.262695
982.079773	1627.153198	1627.153198	24.687866
982.44928	1519.424438	1550.845337	-11.221801
982.818604	1640.619263	1761.814209	35.909668
983.187866	1573.288818	1544.112305	-29.176513
983.557129	1523.913086	1521.668823	-40.398193
983.926331	1575.533203	1620.420166	-31.420898
984.295471	1597.976685	1501.469604	-130.172242
984.664612	1488.00354	1438.627808	-100.995727
985.033569	1548.600952	1573.288818	2.244385
985.402527	1557.578369	1559.822754	-17.954834
985.771362	1602.465332	1640.619263	44.886963
986.140259	1582.266235	1674.284546	114.461792
986.508911	1555.333984	1546.356567	-15.710449
986.877625	1689.994995	1737.126343	-8.977417
987.246277	1512.691406	1555.333984	20.199097
987.614929	1568.800171	1593.487915	31.420898
987.983459	1539.623535	1703.46106	116.706177
988.351807	1687.75061	1669.795776	-98.751342
988.720215	1429.650513	1449.849609	49.37561
989.088623	1492.492188	1562.067017	-29.176514
989.456909	1716.927124	1687.75061	-114.461792
989.825012	1681.017578	1667.551514	-44.886963
990.193115	1568.800171	1517.180054	-109.973145
990.561279	1627.153198	1649.59668	-69.574829
990.929321	1566.555786	1553.089722	-29.176514
991.297302	1584.51062	1649.59668	-26.932251
991.6651	1463.315674	1445.360962	44.886963
992.03302	1573.288818	1553.089722	11.221802
992.400818	1521.668823	1496.980957	8.977417
992.768494	1667.551514	1586.754883	-20.199219
993.136047	1532.890503	1553.089722	51.620117
993.503723	1512.691406	1452.093994	-69.574829
993.871277	1600.221069	1667.551514	-15.710449
994.23877	1508.202637	1548.600952	-20.199097
994.60614	1438.627808	1571.044434	44.887085
994.97345	1465.560059	1494.736572	-38.153931
995.340759	1452.093994	1523.913086	35.909546
995.708008	1602.465332	1559.822754	-60.597412
996.075195	1571.044434	1517.180054	-56.108643
996.4422	1485.759155	1445.360962	-20.199096
996.809265	1580.021851	1447.605225	-87.529663
997.17627	1490.247925	1418.428711	-24.687866
997.543152	1508.202637	1512.691406	-38.153931
997.910095	1501.469604	1454.338257	-49.37561
998.276733	1553.089722	1530.64624	-53.86438
998.643494	1496.980957	1431.894775	0
999.010193	1523.913086	1483.514893	-159.348755
999.376831	1553.089722	1559.822754	-4.48877
999.743286	1472.293091	1496.980957	6.733032
1000.109802	1613.687134	1631.641846	-40.398316
1000.476257	1528.401855	1539.623535	31.420899
1000.842651	1503.713989	1445.360962	-40.398315
1001.208923	1557.578369	1573.288818	0
1001.575134	1488.00354	1512.691406	-47.131348
1001.941284	1530.64624	1479.026123	-62.841797
1002.307434	1532.890503	1481.270508	-60.597412
1002.673523	1523.913086	1550.845337	-4.488648
1003.039429	1517.180054	1514.935791	4.488769
1003.405334	1575.533203	1640.619263	11.22168
1003.771179	1447.605225	1523.913086	-11.22168
1004.137024	1604.709717	1575.533203	-92.018311
1004.502808	1467.804443	1420.673096	-114.461792
1004.868408	1470.048706	1537.379272	60.597534
1005.234009	1391.496582	1521.668823	71.819092
1005.599609	1537.379272	1624.908813	42.642579
1005.965149	1494.736572	1488.00354	-51.619995
1006.330444	1474.537476	1485.759155	-17.954834
1006.695862	1573.288818	1604.709717	-56.108764
1007.061218	1555.333984	1494.736572	-17.954712
1007.426453	1649.59668	1597.976685	0
1007.791626	1571.044434	1546.356567	31.420898
1008.156677	1571.044434	1624.908813	-2.244263
1008.521729	1824.655884	1822.411621	56.108764
1008.88678	1541.86792	1535.134888	-100.995728
1009.251709	1452.093994	1420.673096	89.773926
1009.616577	1488.00354	1510.447021	13.466064
1009.981384	1438.627808	1519.424438	150.37146
1010.34613	1622.664551	1663.062744	85.285278
1010.710754	1674.284546	1645.108032	-26.932251
1011.075439	1685.506226	1739.370605	87.529663
1011.439941	1472.293091	1577.777466	35.909546
1011.804443	1517.180054	1568.800171	0
1012.168884	1508.202637	1449.849609	-40.398194
1012.533325	1474.537476	1470.048706	-13.466065
1012.897522	1557.578369	1663.062744	-13.466064
1013.26178	1411.695679	1541.86792	85.285278
1013.626038	1503.713989	1685.506226	-42.642578
1013.990112	1602.465332	1739.370605	-42.642578
1014.354187	1568.800171	1692.23938	-17.954834
1014.71814	1559.822754	1645.108032	100.995727
1015.082153	1609.198364	1676.528931	11.221802
1015.446045	1633.88623	1665.307129	-13.466064
1015.809937	1620.420166	1618.175781	-85.285278
1016.173523	1449.849609	1452.093994	69.574829
1016.53717	1559.822754	1564.311401	-33.665283
1016.900879	1550.845337	1580.021851	-13.466065
1017.264404	1557.578369	1586.754883	-69.574829
1017.627991	1557.578369	1490.247925	22.443482
1017.991333	1382.519165	1503.713989	69.574829
1018.354675	1609.198364	1588.999268	-29.176513
1018.718018	1512.691406	1553.089722	4.488648
1019.081299	1539.623535	1575.533203	-22.443481
1019.444397	1557.578369	1566.555786	-20.199097
1019.807495	1503.713989	1523.913086	-40.398315
1020.170593	1526.157471	1562.067017	-80.796509
1020.533691	1604.709717	1544.112305	-154.860108
1020.896606	1591.243652	1584.51062	-109.973144
1021.25946	1555.333984	1600.221069	-22.443481
1021.622253	1470.048706	1548.600952	-56.108643
1021.985046	1588.999268	1586.754883	-76.307862
1022.347778	1546.356567	1591.243652	40.398316
1022.710327	1521.668823	1539.623535	-6.733032
1023.072876	1470.048706	1476.78186	49.375732
1023.435364	1447.605225	1550.845337	69.574829
1023.797852	1566.555786	1488.00354	-11.221802
1024.160278	1434.13916	1483.514893	-2.244385
1024.522461	1526.157471	1591.243652	-51.619995
1024.884766	1452.093994	1463.315674	-20.199219
1025.246948	1505.958374	1505.958374	-24.687866
1025.609131	1496.980957	1582.266235	-22.443481
1025.971069	1642.863647	1559.822754	-38.15393
1026.33313	1411.695679	1467.804443	13.466064
1026.694946	1683.261963	1640.619263	17.954712
1027.056885	1732.637573	1777.524658	24.687866
1027.418823	1523.913086	1526.157471	22.443481
1027.780396	1568.800171	1555.333984	2.244263
1028.14209	1492.492188	1528.401855	40.398315
1028.503784	1479.026123	1539.623535	-4.488647
1028.865479	1559.822754	1387.007813	-103.240112
1029.226807	1485.759155	1519.424438	35.909668
1029.588135	1537.379272	1532.890503	-29.176635
1029.949707	1508.202637	1517.180054	-40.398194
1030.310913	1546.356567	1651.841064	13.466187
1030.672241	1656.329712	1584.51062	-58.353027
1031.033325	1678.773193	1580.021851	-130.172241
1031.394531	1636.130615	1624.908813	8.977417
1031.755493	1600.221069	1627.153198	-53.864502
1032.116577	1541.86792	1537.379272	-11.22168
1032.477417	1638.375	1584.51062	29.176514
1032.838257	1483.514893	1503.713989	-24.687867
1033.199097	1505.958374	1523.913086	49.37561
1033.559937	1541.86792	1602.465332	-2.244385
1033.920654	1499.225342	1494.736572	-22.443482
1034.281128	1557.578369	1488.00354	-40.398315
1034.641724	1721.415894	1672.040161	-74.063599
1035.002197	1728.148926	1669.795776	-2.244385
1035.362671	1640.619263	1622.664551	-20.199097
1035.7229	1499.225342	1606.954102	-53.86438
1036.083252	1636.130615	1672.040161	-11.221802
1036.443481	1512.691406	1530.64624	-94.262695
1036.803711	1479.026123	1588.999268	42.6427
1037.16394	1730.393311	1770.791504	78.552124
1037.523804	1618.175781	1618.175781	2.244385
1037.883789	1409.451294	1461.071411	-11.22168
1038.243774	1535.134888	1571.044434	6.733032
1038.603638	1651.841064	1701.216675	62.841797
1038.963257	1532.890503	1638.375	85.285278
1039.32312	1564.311401	1499.225342	-103.23999
1039.682861	1443.116577	1470.048706	26.932129
>>>>>End Processed Spectral Data<<<<<
