Jaz Data File
++++++++++++++++++++++++++++++++++++
Date: Wed Dec 03 21:01:41 2014
User: jaz
Dark Spectrum Present: Yes
Reference Spectrum Present: Yes
Processed Spectrum Present: No
Spectrometers: JAZA2310
Integration Time (usec): 4090 (JAZA2310)
Spectra Averaged: 5 (JAZA2310)
Boxcar Smoothing: 0 (JAZA2310)
Correct for Electrical Dark: Yes (JAZA2310)
Strobe/Lamp Enabled: No (JAZA2310)
Correct for Detector Non-linearity: Yes (JAZA2310)
Correct for Stray Light: No (JAZA2310)
Number of Pixels in Processed Spectrum: 2048
>>>>>Begin Processed Spectral Data<<<<<
W	D	R	S
188.301102	0.000000	0.000000	0.000000
188.764923	0.000000	0.000000	0.000000
189.228699	-62.301064	-82.134003	-66.047195
189.692459	-61.804218	-61.262249	-29.288242
190.156158	-53.854870	-43.874691	-28.791409
190.619812	-18.096642	-14.079770	-4.960569
191.083435	-16.607244	1.804648	-26.805326
191.547043	-20.579054	4.782534	-15.385483
192.010590	3.248462	-5.640522	-21.343445
192.474091	13.670219	-13.086902	3.477239
192.937561	31.531572	-12.590474	17.868446
193.401001	38.972206	45.961025	-3.471504
193.864410	9.700178	-6.137026	35.728672
194.327759	16.647373	-5.640657	24.814547
194.791077	12.181451	59.845993	6.455041
195.254349	17.639858	23.638819	-11.413889
195.717575	43.436249	39.513386	-0.493217
196.180786	32.027626	3.789832	-0.989678
196.643951	-2.707480	12.722740	16.876099
197.107071	16.151325	9.249015	7.943953
197.570145	12.181451	-25.002964	23.326195
198.033203	-17.103706	18.181232	15.387546
198.496216	18.632195	42.489109	12.906272
198.959167	9.700178	7.263879	-17.371449
199.422089	-31.006737	-33.941326	-11.910441
199.884979	-15.614334	14.211494	-26.805326
200.347855	-47.893738	8.256658	12.410059
200.810654	0.766948	-18.548153	-29.288242
201.273422	-6.678488	-3.158604	-47.168041
201.736160	-29.020582	-57.784348	-22.336586
202.198853	-36.469788	-40.894627	1.492044
202.661514	-43.919945	-41.887966	-19.853830
203.124130	-24.054741	0.315581	-42.200802
203.586700	-22.068686	-14.079905	-36.240990
204.049240	-62.797775	-24.506298	-40.710793
204.511734	-43.919807	-38.411221	-18.364254
204.974197	-42.926437	-50.332428	-31.771128
205.436615	-42.926437	-25.499496	-44.187675
205.899002	-54.351917	-82.631020	-45.181202
206.361343	-76.711945	-31.458347	-37.234116
206.823654	-31.006872	-39.901306	-35.744232
207.285919	-51.371048	-60.765411	-38.227528
207.748123	-40.443077	-18.051680	-29.288242
208.210327	-52.364700	-24.009640	-42.697613
208.672485	-51.867668	-18.548018	-6.946183
209.134583	-42.429893	-32.451660	-25.315844
209.596649	-29.516878	-34.934681	-39.220955
210.058670	-31.006872	-20.534090	-22.832962
210.520676	-29.517014	-14.576210	-17.371449
210.982635	-51.867668	-56.293941	-6.449672
211.444534	-66.773125	-81.139977	-34.254524
211.906403	-33.489964	-53.313110	-14.889035
212.368240	-52.364700	-58.281162	5.462367
212.830048	-11.146309	-56.790607	-34.750999
213.291779	-17.103571	-18.548018	-62.569012
213.753494	-55.345352	-45.861622	-47.168041
214.215179	-51.371048	-38.411354	-42.697613
214.676819	-56.338932	-49.835686	-64.059578
215.138412	-43.919945	-38.907867	-48.161488
215.599960	-84.664284	-19.044632	-42.200935
216.061493	-27.034222	-44.371521	-46.671463
216.522949	-31.007008	-20.534090	-54.619560
216.984406	-15.117749	-27.982222	-39.220684
217.445801	-49.880672	-51.326061	-65.550186
217.907166	-31.006872	-35.431297	12.906407
218.368484	-37.463051	-26.492573	-24.819178
218.829773	-20.082561	-17.058744	-28.791677
219.291031	-50.377548	-25.996033	-50.148697
219.752228	-66.276108	-33.941460	-38.724171
220.213379	-31.006737	-28.478779	-32.764446
220.674500	-33.489964	-39.901306	-33.757648
221.135574	-21.075684	-24.009911	-37.730888
221.596634	-52.364429	-34.438068	-32.267853
222.057648	-37.959690	-20.534090	-52.632469
222.518600	-50.377548	-28.975475	-61.078350
222.979553	-35.973164	-44.868217	-24.819178
223.440430	-18.593115	-14.079770	-43.194431
223.901276	-46.403450	-23.016739	-35.744232
224.362076	-40.939739	-12.094051	-18.860865
224.822845	-30.510159	-64.740349	-30.777960
225.283569	-29.020582	-15.072790	-26.308784
225.744278	-62.300926	-22.520227	-34.254253
226.204910	-29.517147	-67.224876	-17.371449
226.665512	-32.496635	-49.835686	-36.240856
227.126114	-39.449631	-38.411221	-54.619698
227.586639	-58.823105	-31.458347	-36.737484
228.047119	-59.319923	-18.548153	-18.861000
228.507568	-31.503590	-27.485668	-33.261044
228.967972	-51.371048	-31.458347	-48.161621
229.428345	-67.269882	1.308342	-13.399720
229.888687	-75.221062	-34.438068	-32.267853
230.348984	-35.973164	-42.384640	-62.569012
230.809219	-22.565329	-33.444721	-47.664761
231.269440	-37.959553	-28.478779	-52.632469
231.729614	-27.034086	-42.384640	-75.488937
232.189758	-10.153220	-39.901306	-34.750999
232.649841	-10.649762	-20.534090	-19.853830
233.109894	-64.288620	-21.030584	-27.798561
233.569901	-52.861328	-51.822815	-33.261044
234.029892	-32.993366	-50.829037	-32.267853
234.489822	-23.061840	-42.881454	-18.861000
234.949707	4.737589	-63.746490	-26.805326
235.409561	0.270633	-22.023586	-62.569012
235.869385	-40.443077	-29.968611	-49.155083
236.329163	-52.364700	-23.016603	-64.556442
236.788895	-45.410172	-47.848618	-44.187809
237.248581	-78.699997	-25.995897	-61.575188
237.708237	-46.900162	-32.948120	-35.247478
238.167847	-51.371048	-10.604671	9.928931
238.627441	-23.558357	-22.520227	-2.975157
239.086960	-44.913334	-49.835415	-40.214130
239.546463	-18.096506	-51.822815	-40.214130
240.005920	-35.973164	-44.371387	-31.771261
240.465332	-59.319923	-63.746624	-30.778095
240.924698	-41.932945	-53.809746	-21.839947
241.384033	0.766948	17.188755	-31.274677
241.843338	-62.797909	-18.548018	-46.174751
242.302597	-46.900162	-20.037600	-76.482994
242.761810	-17.103571	-28.975340	-38.724171
243.220993	-51.867668	-29.472042	-38.227528
243.680115	-73.233131	-14.079770	-56.109924
244.139221	-91.126411	-41.887966	-55.613266
244.598282	-42.429893	-30.465185	-42.697613
245.057297	-51.371048	-68.715569	-51.142193
245.516266	-65.779099	-44.868351	-20.846811
245.975189	-30.510292	-39.404652	-19.357346
246.434082	-71.742325	-47.848618	-9.427990
246.892944	-39.449631	-25.499632	-39.220684
247.351761	-41.436409	-34.934681	-38.724308
247.810516	-32.993229	-63.746624	-1.486143
248.269272	-38.953114	-29.968611	-39.717472
248.727951	-35.973030	-52.816204	-26.308784
249.186600	-27.034222	-70.206291	3.973527
249.645218	-48.390331	-18.548018	-5.456933
250.103790	-40.939739	-47.848618	-37.233982
250.562317	-33.986568	-47.351765	-38.227528
251.020813	-39.449631	-24.009775	-43.194431
251.479279	-7.671247	-42.881454	-35.744232
251.937668	-43.919945	23.142830	-32.267853
252.396057	-37.463051	-25.996033	-50.645443
252.854385	-61.307240	-36.921307	-45.677769
253.312683	-2.707480	-17.058609	-73.004189
253.770920	-21.075684	-22.023722	-32.764584
254.229126	-54.351646	-29.968611	-51.142193
254.687302	-35.476543	-20.534225	-16.378389
255.145432	-53.854870	-41.391426	-39.717472
255.603500	-72.736053	-20.534225	-46.174614
256.061584	-60.810539	-51.325928	-58.594219
256.519592	-54.351784	-53.312973	-30.281384
256.977570	-52.861462	-90.087074	-26.805326
257.435455	-39.946285	-71.200264	-52.135704
257.893372	-30.013718	-47.351898	-16.378389
258.351196	-53.854870	-40.894627	-22.336452
258.808990	-62.797909	-44.868351	-49.651955
259.266754	-57.829475	-48.842075	-2.975023
259.724487	-83.173058	-34.438206	-52.632336
260.182190	-34.979790	-59.274792	-45.677769
260.639832	-30.013718	-28.478779	-22.832962
261.097443	-29.517014	-28.975475	-18.364254
261.554993	-8.167768	-37.417805	-51.142059
262.012512	-35.973030	-31.458347	-42.697750
262.469971	-33.489964	-40.894627	-31.771261
262.927429	-53.358101	-44.868217	-80.956017
263.384827	-69.754517	-39.901306	-35.247616
263.842194	-22.565329	-51.325928	-46.671326
264.299530	-56.835735	-8.122680	-12.406729
264.756805	-43.423119	-33.444721	-65.053452
265.214050	-20.082561	-13.086902	-10.917340
265.671234	-22.565329	-13.583334	-54.122780
266.128387	-50.874294	-35.431431	-39.220955
266.585510	-27.530771	-46.358330	0.002970
267.042572	-17.103571	-41.888100	-44.187675
267.499573	-6.182114	-35.431431	-35.744232
267.956604	-56.835735	-48.345345	-50.148560
268.413574	-71.245399	4.782399	-27.302010
268.870483	-6.678353	-54.306656	-26.805326
269.327362	-55.345352	-36.921173	-54.122780
269.784180	-37.959824	-49.835686	-8.931728
270.240936	-42.926437	-62.752781	-51.141922
270.697693	-25.544462	-12.094051	-55.613266
271.154419	-25.048065	-27.982222	-0.989678
271.611053	-17.600172	-20.534225	-22.336452
272.067688	-56.338932	-35.431431	-21.839947
272.524292	-39.946419	-30.465321	-32.764446
272.980835	-24.054741	-63.249767	-15.881934
273.437347	-30.510292	-33.941597	-12.406729
273.893799	-74.724098	-32.948257	-21.343445
274.350250	-45.410034	-26.989119	-18.364254
274.806610	-29.020447	-51.325790	-51.638947
275.262939	-37.463051	-34.934681	-54.122780
275.719238	-56.835735	-4.151575	-61.575188
276.175507	-41.933079	-14.576345	-25.315710
276.631714	-44.416637	-19.044632	-19.853830
277.087891	-72.239120	-17.555075	-11.414024
277.544067	-28.523884	-38.411221	-46.671463
278.000122	-33.986568	-24.506298	-26.805326
278.456177	-41.436409	-48.345345	-32.267990
278.912201	-30.013718	-42.881592	-24.819178
279.368164	-19.586346	-3.158874	-41.207458
279.824097	-94.109047	-49.338676	-20.350319
280.279968	-49.880672	-74.678963	-34.750999
280.735840	-44.913334	-26.492708	-44.684505
281.191620	-45.410034	3.789967	-19.853830
281.647400	-87.646721	-43.378139	-42.200935
282.103149	-14.621305	-31.955069	-60.581512
282.558838	-6.678353	-15.569239	-29.288378
283.014465	-40.443077	-32.948257	-50.645309
283.470062	-37.959690	-43.874825	-27.301874
283.925629	-26.537676	-38.907867	-27.798561
284.381134	-37.463051	-29.968477	-28.791677
284.836639	-32.000042	-26.492439	-55.116478
285.292053	-63.294765	-62.752781	-33.757919
285.747467	-49.383930	-48.345345	-57.600460
286.202820	-16.607244	-7.626024	-26.308784
286.658142	-12.635568	-52.816338	6.951304
287.113434	-1.714669	-27.982222	-45.677769
287.568634	-32.000175	-33.444855	-39.717609
288.023804	-8.167633	-40.397964	-27.301874
288.478973	-29.517147	-27.982222	-5.456933
288.934113	-25.048065	-24.506298	-32.764584
289.389130	-16.607244	-52.816204	-39.717339
289.844208	-53.854870	-72.194115	-73.004189
290.299164	-37.462917	-18.548018	-32.267719
290.754089	-30.013449	1.804648	-24.322651
291.208984	-61.307377	-22.520227	-47.664761
291.663879	-16.607244	-3.655087	-38.724171
292.118683	-47.893604	-31.458347	-33.757648
292.573456	-14.621440	-29.968611	-26.308784
293.028198	-21.572182	-37.417938	-63.065865
293.482849	-47.893738	-20.534225	-14.889035
293.937561	-49.880672	-33.444855	-36.240856
294.392151	-4.196661	-7.129777	-22.832962
294.846741	-53.854870	-25.002964	-38.227528
295.301239	-23.061705	-54.803440	-20.846947
295.755737	-13.628293	-28.478914	-48.658352
296.210175	-58.822968	-27.982357	6.951304
296.664581	-47.397152	-27.485804	-18.860865
297.118958	-57.829342	-20.534090	-18.861000
297.573242	-39.449631	-56.293941	-42.201073
298.027557	-27.034222	-49.338810	-45.181202
298.481812	-48.390465	-25.996033	-67.040962
298.935974	-68.760704	-50.829308	-17.867781
299.390137	-36.966419	-18.051544	-24.819178
299.844238	-88.640862	-4.647932	-13.896155
300.298340	-24.551266	7.760405	-32.764584
300.752350	-38.952980	-40.894489	-13.399856
301.206360	-20.082697	-19.540977	-3.967990
301.660278	-39.449764	-23.513121	-45.181202
302.114197	-44.913334	-27.485804	-20.846947
302.568054	-45.410034	-46.358330	-36.737484
303.021881	-72.736053	-37.417938	-41.207592
303.475677	-65.282356	-28.975475	-44.684639
303.929413	-53.854870	-11.597497	-24.322651
304.383118	-48.390331	-52.319439	-39.717609
304.836761	-42.926437	-0.180738	-29.288242
305.290375	-30.013718	-26.492439	-20.350454
305.743958	-25.047930	-19.541113	-22.336586
306.197510	-22.068821	-31.954935	-13.399720
306.650970	-56.339069	-38.907867	-7.938812
307.104431	-32.496635	-15.072790	-20.846947
307.557800	-13.628428	-16.562283	5.958773
308.011169	-32.496635	-25.002964	-5.456933
308.464508	-35.973030	10.241624	-64.556442
308.917755	-23.558357	-22.023722	-13.896155
309.371063	-30.013582	-32.948257	-28.791677
309.824219	-55.345352	-2.662395	-37.731022
310.277374	-22.068686	-12.590340	-18.364388
310.730499	-63.294903	-62.752781	-50.148560
311.183563	-37.959824	-31.955069	-41.207729
311.636597	-26.537676	-25.499632	-28.791677
312.089569	-56.835869	-46.855045	-14.889035
312.542511	-65.282356	-21.030584	-26.308784
312.995422	-11.642589	-13.086902	-45.677906
313.448273	-51.371048	-43.378139	-30.281384
313.901093	-39.449631	-29.968477	-17.371449
314.353882	-58.823105	-48.345478	-18.364523
314.806580	-70.748344	-46.855183	-74.495026
315.259308	-32.496635	-28.478779	-34.254253
315.711975	-25.544462	-54.306656	-53.626141
316.164581	-49.880672	-48.842075	-33.757782
316.617126	-18.096642	-37.418076	-60.084682
317.069672	-34.483177	-44.371655	-27.302145
317.522156	-72.239258	-35.927917	-30.281384
317.974579	-48.887196	-26.492573	-47.664898
318.427002	-48.887329	1.308342	-3.471504
318.879333	-22.565329	-13.086902	-8.931728
319.331665	-35.973030	-36.424679	-32.764584
319.783936	-26.041134	-63.249767	6.455176
320.236176	-5.685744	-31.954935	-74.495155
320.688354	-41.436409	-57.287544	-43.194294
321.140503	-10.153220	-31.458347	-31.771261
321.592651	3.248597	-25.499361	-14.392592
322.044647	-14.124865	-26.989119	-9.428124
322.496704	-71.245132	-63.746490	-25.812380
322.948639	-39.946285	-37.914577	-36.240990
323.400604	-55.842140	-62.255932	-35.744370
323.852509	-32.000175	-24.506298	3.973527
324.304352	-45.410034	1.308342	-25.315575
324.756165	-23.061705	-19.541113	-25.812244
325.207916	-59.816746	-7.626159	-16.874985
325.659668	-69.754646	-32.948257	-9.428124
326.111328	-40.939739	-16.065556	-8.435471
326.562988	-27.034222	21.654299	-7.938947
327.014557	-50.377415	-21.527220	-8.435336
327.466156	-41.933079	-53.313110	-40.710793
327.917664	-40.443077	-51.822548	-15.881934
328.369110	-21.572182	-6.136891	-35.744232
328.820557	-38.456329	-29.472042	-37.234116
329.271942	-28.524019	-3.158739	-52.632469
329.723297	-36.469788	-19.541113	-12.903290
330.174561	-74.227020	-1.669720	-44.684505
330.625854	-23.061840	21.158159	-21.343309
331.077026	-42.429756	-34.934681	-12.406729
331.528229	-53.854870	-33.941460	-50.645309
331.979370	-58.822968	-38.907867	-20.846947
332.430450	-63.791622	-21.030584	-33.757648
332.881500	-32.000042	-25.002829	-21.343309
333.332489	-37.463051	12.226525	-18.860865
333.783478	-75.717880	-22.023722	-26.308784
334.234406	-64.785622	-28.975475	-14.889035
334.685303	-55.842140	12.722740	-9.924526
335.136078	-55.345352	-8.619069	-10.917340
335.586914	-47.397018	6.271488	-45.677769
336.037659	-50.377548	-6.137026	-0.493352
336.488342	-68.263672	5.278811	-18.860865
336.939026	-44.416637	-4.647797	1.491909
337.389648	-41.933079	8.256522	-23.825994
337.840240	-59.816879	-10.108399	5.462367
338.290771	-42.926437	9.249015	2.484515
338.741272	-47.893738	8.256522	-17.371449
339.191681	-30.013718	-9.611861	-21.840080
339.642120	-2.707480	-27.982222	-2.975157
340.092468	-29.517147	6.767753	-27.798561
340.542816	-38.952980	15.203887	-14.889035
340.993103	-44.913334	30.088314	12.906407
341.443329	-47.396881	49.928505	14.395021
341.893555	-23.558357	14.211360	-0.493352
342.343689	-46.900162	10.241624	37.216713
342.793793	-26.041000	31.080576	26.799231
343.243866	-19.586075	18.677399	17.372274
343.693878	-53.358101	13.715293	95.223602
344.143890	-28.523884	60.341808	8.440204
344.593842	-49.880672	51.912216	14.395021
345.043732	-48.887196	66.787331	26.303133
345.493591	2.752302	51.912216	34.240589
345.943359	-34.979790	88.102386	-13.896020
346.393158	-49.880672	103.959442	35.232376
346.842896	-28.027327	81.659019	31.264050
347.292542	-4.692883	60.342079	50.607826
347.742218	-45.906876	41.993145	29.279787
348.191803	3.248462	112.381859	45.648518
348.641357	-34.979790	90.580261	58.046211
349.090881	-43.920078	92.562355	54.574997
349.540314	-35.973030	123.775200	96.710297
349.989777	-57.332535	153.981735	120.986443
350.439148	-51.867668	206.435974	139.806442
350.888489	-9.656952	356.131622	221.951050
351.337799	-33.489964	692.287476	435.710785
351.787048	-53.358101	1213.660522	858.689758
352.236267	-41.933079	1689.267578	1236.254272
352.685425	-37.959553	1958.116455	1407.546265
353.134552	-58.823105	1799.138184	1283.495728
353.583649	-29.517147	1521.995605	1026.957764
354.032684	-29.020447	1067.805664	704.740967
354.481659	-33.489964	783.538330	479.558899
354.930634	-28.524019	623.031128	375.556000
355.379517	-18.593115	500.058777	285.216675
355.828430	-36.469654	430.106964	245.188858
356.277222	-28.523884	377.346649	241.234238
356.726013	-59.816746	375.866974	236.290207
357.174774	-22.565193	345.274811	219.972900
357.623444	-5.685609	346.755371	217.500412
358.072113	-26.537676	369.453552	174.458954
358.520721	-36.966419	327.504852	182.376923
358.969299	-11.642724	362.546234	212.059906
359.417786	-45.906876	348.729370	214.038300
359.866302	-18.096642	357.612030	217.994934
360.314697	-46.900162	368.960327	241.234238
360.763123	-26.537811	364.519867	253.591843
361.211456	-25.544462	377.346649	248.649200
361.659760	-41.436272	417.290924	223.434647
362.108032	-29.517014	412.853821	270.888672
362.556244	-71.742325	402.006531	245.683426
363.004456	-31.503454	445.384613	252.603622
363.452576	-22.565193	524.671692	292.626648
363.900696	-37.463051	803.146301	444.581360
364.348663	-39.946285	1480.243530	824.889832
364.796722	-20.082697	2586.794922	1701.070068
365.244690	-32.000042	3577.682129	2527.996826
365.692596	-26.041000	3820.808838	2854.048340
366.140472	-15.117885	3230.243652	2414.253662
366.588287	-50.377277	2312.208984	1810.440430
367.036102	-24.054741	1614.644653	1240.638916
367.483826	-47.893604	998.923096	735.166138
367.931549	-35.476543	751.663452	543.061218
368.379181	-30.013718	601.404724	416.980133
368.826843	-45.906742	591.571960	423.388641
369.274384	-47.396881	532.053711	380.489044
369.721924	-49.383930	518.765381	337.560394
370.169403	-35.476406	539.927002	354.833801
370.616821	-1.218337	510.889465	392.819458
371.064270	-37.959553	525.163818	383.941711
371.511566	-25.544462	546.323364	361.248810
371.958923	-70.748344	524.671509	369.142822
372.406158	-61.307240	507.443451	381.968658
372.853424	-68.760704	552.719055	352.860107
373.300568	-46.900162	530.085205	377.035950
373.747711	-55.842007	591.080566	378.515900
374.194794	-33.986568	609.269531	401.695709
374.641846	-64.288490	598.946655	465.767090
375.088898	-36.966419	640.229309	493.839996
375.535828	-48.887196	662.825256	503.687378
375.982758	-50.874161	781.577271	525.345703
376.429596	-17.600307	927.038635	677.248535
376.876465	-21.572317	1371.388062	928.198059
377.323242	-11.642589	2189.043701	1570.696289
377.769989	0.270768	3209.292480	2424.338379
378.216675	-48.390465	4045.901611	3033.590576
378.663330	-61.804085	4304.934570	2963.436768
379.109985	-28.027189	4027.949219	2601.350342
379.556519	-53.854870	3539.715820	2183.925293
380.003052	-58.326286	2977.581055	1807.055542
380.449524	-57.332672	2487.041748	1429.416626
380.895996	-30.013582	2015.062744	1137.291382
381.342377	-44.416637	1505.976807	971.727844
381.788727	-28.523884	1223.406616	710.630493
382.235046	-42.926437	985.236572	632.549683
382.681274	-31.006737	861.937012	587.328796
383.127533	-43.423256	851.651978	513.040649
383.573669	-53.358101	792.362793	558.804260
384.019836	-44.913200	752.153809	508.117950
384.465912	-30.510292	736.456543	493.347473
384.911957	-61.804218	742.833984	499.748413
385.357971	-39.946419	735.475098	456.406769
385.803925	-52.364429	703.086853	487.931030
386.249847	-31.006872	704.068481	500.240875
386.695679	-21.572182	704.559448	501.717865
387.141541	-62.797909	674.120544	503.194916
387.587311	-74.227020	739.890442	501.717865
388.033051	-38.953114	778.635376	508.610229
388.478729	-40.939739	780.106323	510.087158
388.924408	-29.517147	734.984619	527.314392
389.369995	-36.469788	773.241943	552.408997
389.815552	-49.880672	748.229675	532.727966
390.261078	-27.034222	786.479736	556.344604
390.706543	-45.410034	808.047546	593.229004
391.152008	-39.449631	799.715332	575.526978
391.597351	-36.966419	802.656067	594.212219
392.042725	11.685367	816.868347	545.521179
392.487976	13.174012	826.178589	556.836548
392.933289	-1.218337	796.283875	580.936279
393.378479	-40.442944	816.378723	558.312378
393.823639	-25.048065	793.832947	551.425232
394.268768	-41.933079	852.631531	555.360657
394.713837	-9.656952	882.991394	546.505432
395.158905	-20.082697	871.730225	599.620056
395.603851	-58.326286	893.271484	624.195923
396.048798	-19.089727	908.933472	619.772705
396.493683	1.759701	878.095459	585.361816
396.938568	-40.939739	912.848633	576.510620
397.383392	-43.919945	916.763184	593.229004
397.828156	-48.390465	884.460144	627.635498
398.272888	-42.429756	920.188416	634.023560
398.717560	-38.953114	951.497253	652.692749
399.162201	-52.861462	967.635132	599.128601
399.606781	-48.887196	946.606079	608.468262
400.051361	-12.139009	939.757996	624.195923
400.495819	-58.822968	975.947388	621.738708
400.940308	-24.551401	961.278503	637.463196
401.384705	-4.692883	999.411926	669.882751
401.829102	-10.649628	1004.788025	630.092834
402.273438	-17.600307	1067.317505	661.533630
402.717682	-13.131995	1038.013672	615.349792
403.161926	-41.436409	1041.432983	660.060120
403.606110	-37.959553	1279.420532	786.170959
404.050293	-75.221062	2020.851563	1117.775513
404.494385	-28.523884	3187.861084	2030.677490
404.938446	-1.218337	4014.246338	2426.259033
405.382477	-21.075819	3901.727295	2292.673096
405.826447	-44.416637	3029.120117	1679.759521
406.270386	-41.933079	2035.322754	1242.100464
406.714233	-41.436409	1519.568970	903.241821
407.158081	-37.463051	1323.715210	705.722839
407.601868	-64.288490	1356.311279	789.602661
408.045624	-38.456467	1440.898438	843.996155
408.489319	-23.061840	1435.553589	876.807678
408.933014	-44.913334	1519.083740	836.648315
409.376617	-51.867805	1979.355591	1133.876465
409.820190	-37.959553	3252.142334	2070.220459
410.263702	-83.670212	5235.151855	3478.167969
410.707184	-58.823238	6804.421875	4347.515137
411.150635	-49.880672	6973.674805	4122.575684
411.594025	-50.874161	6000.240234	3468.193604
412.037384	-46.403450	4754.092773	2753.625000
412.480682	-46.900299	3790.508545	2131.909668
412.923981	-37.959553	3222.149658	1766.903687
413.367126	-64.288490	2778.802979	1462.453247
413.810333	-59.816879	2247.761230	1159.728027
414.253479	-48.390465	1834.922852	957.057800
414.696533	-46.900162	1476.358398	797.936035
415.139587	-52.861462	1346.096191	687.068665
415.582581	-42.429756	1228.279053	672.829163
416.025543	-39.449631	1155.158447	617.315369
416.468414	-39.449631	1136.623047	631.567017
416.911285	-75.220924	1156.621704	605.519104
417.354065	-81.184990	1164.424072	608.959900
417.796875	-21.075684	1126.377686	550.933289
418.239594	-56.338932	1121.498657	623.704346
418.682281	-71.742325	1138.086548	622.721558
419.124908	-32.496635	1111.251099	638.445801
419.567505	-67.269882	1116.619019	594.703735
420.010071	-32.496635	1186.852905	619.772705
420.452545	-66.773125	1145.403687	665.462891
420.895020	-49.383930	1219.020874	659.568787
421.337372	-33.489964	1264.325439	670.373718
421.779785	-25.048065	1237.048584	648.762512
422.222107	-39.449631	1265.299316	662.024658
422.664368	-58.326286	1302.301270	648.762512
423.106628	-40.443077	1296.946899	678.230835
423.548798	-29.517147	1325.661743	683.140503
423.990967	-41.436409	1342.690796	704.740967
424.433044	-67.269882	1351.447021	717.992371
424.875092	-12.635568	1337.825684	732.712952
425.317078	-19.089863	1374.792480	688.050842
425.759064	-35.973030	1379.168823	687.068665
426.200989	-23.061975	1420.003540	743.015747
426.642853	-17.600307	1414.657104	722.409119
427.084686	-69.754517	1427.778931	759.692322
427.526459	-35.476406	1440.412476	789.112305
427.968201	-26.041000	1483.643066	754.297363
428.409912	-35.476406	1450.615112	781.758667
428.851563	-28.027327	1514.229248	800.876892
429.293121	-29.020447	1544.804199	740.562561
429.734711	-35.476406	1552.082275	819.500000
430.176239	-53.358101	1595.250732	816.069519
430.617706	-24.551401	1589.916626	833.708740
431.059113	-16.110651	1644.211548	834.688782
431.500488	-0.722145	1644.695923	858.690002
431.941833	-52.364429	1730.910156	825.380188
432.383087	-39.449631	1691.688965	896.878906
432.824341	-14.124865	1679.096069	891.983948
433.265533	-64.785484	1821.384155	972.705933
433.706726	-54.351646	1970.667236	1060.173340
434.147827	-41.436409	2110.530762	1174.844727
434.588867	-65.779099	2516.307373	1297.126953
435.029877	-33.489830	3574.360352	1823.497437
435.470825	-47.397018	5886.389648	3379.331543
435.911804	-52.861328	8229.438477	4947.491699
436.352661	-41.436409	9573.029297	5531.314453
436.793518	-23.061840	8695.592773	4417.684082
437.234283	-38.953114	6784.114258	3610.591553
437.675049	-19.586346	5121.974609	2957.708008
438.115723	-40.443077	4200.263184	2324.405518
438.556396	-63.294765	3651.201172	1925.461304
438.997040	-32.496635	3367.745850	1819.145508
439.437561	-54.848564	3299.731445	1767.387329
439.878113	-61.307106	3326.847656	1828.332520
440.318573	-76.711945	3371.073242	1881.985352
440.759033	-45.906876	3458.517578	1891.648193
441.199341	-52.861462	3646.458984	1958.295532
441.639709	-49.383930	3678.698242	1967.466919
442.079956	-53.855007	3803.291992	2076.969727
442.520264	-44.913471	3797.136475	2075.041504
442.960510	-54.351784	3910.240479	2128.537109
443.400604	-86.652473	3883.750000	2195.480225
443.840759	-63.294765	3914.970459	2190.184570
444.280762	-16.607244	3835.956543	2176.702881
444.720825	-21.572317	3726.563721	2055.755615
445.160767	-26.041134	3477.042725	1962.639893
445.600739	-26.537540	3174.999023	1782.386353
446.040558	-22.068686	2858.172607	1544.013184
446.480438	-44.913334	2512.469971	1310.755859
446.920258	-66.772987	2204.930176	1194.345459
447.359955	-36.469654	1934.458252	1034.774658
447.799713	-31.006737	1734.298462	924.283813
448.239319	-58.822968	1559.844604	812.639465
448.678955	-29.020447	1472.473267	782.249023
449.118500	-2.707480	1424.377319	814.599609
449.558014	-31.006872	1450.615112	758.220947
449.997498	-39.946148	1862.959229	1003.502808
450.436951	-84.167381	3587.645264	1935.602661
450.876343	-60.810539	7503.505371	4723.752441
451.315674	-58.326286	12566.251953	8079.804688
451.754974	-45.906742	15566.079102	9431.635742
452.194183	-21.075819	15916.394531	8629.329102
452.633392	-54.351917	13549.932617	7191.192383
453.072510	-7.174866	10648.567383	5896.789063
453.511688	-43.423256	8499.848633	4716.708984
453.950684	-53.358101	6971.370605	3740.951416
454.389740	-25.544462	5845.936035	2793.328857
454.828735	-40.443077	4656.417969	2242.646484
455.267639	-42.429756	3568.191895	1735.929810
455.706543	-68.263535	2567.619873	1288.851318
456.145325	-53.854870	1884.705322	933.579590
456.584137	-33.986568	1394.727173	732.222168
457.022858	-61.307240	1063.899292	581.428162
457.461578	-36.469788	901.102905	428.810638
457.900208	-27.530636	774.712708	381.968658
458.338867	-35.973030	752.644409	357.794678
458.777405	-42.429756	668.227722	315.838104
459.215912	-37.959553	639.737610	302.504852
459.654388	-57.829475	657.422241	299.047485
460.092773	-43.423119	609.761169	291.144714
460.531189	-17.103842	567.967773	298.059845
460.969513	-19.586075	574.361572	267.429840
461.407806	-66.276108	574.853210	244.200089
461.846008	-36.966419	510.397339	257.051605
462.284241	-46.403584	497.596954	229.368179
462.722351	-7.671247	459.180603	267.429840
463.160461	-32.496635	466.570099	250.131897
463.598541	-52.364563	483.316528	261.993835
464.036530	-64.785484	475.436432	280.276398
464.474518	-21.572182	454.253845	252.603348
464.912384	-39.946285	457.209991	234.312653
465.350281	-15.117749	457.209991	231.346313
465.788086	-22.068686	459.180603	250.626175
466.225891	-25.047794	478.391479	322.256683
466.663605	-46.403450	514.827454	316.331848
467.101318	-53.358101	532.053711	283.734802
467.539001	-59.319923	523.687256	332.130219
467.976563	-47.396881	533.037903	339.534698
468.414124	-31.006737	536.974609	318.306976
468.851593	-57.829475	507.935760	284.722656
469.289063	-33.489830	539.434692	306.949524
469.726440	-47.397018	552.718811	317.319366
470.163849	-30.013718	540.418884	295.096283
470.601135	-29.517014	516.304260	278.794159
471.038422	-51.867668	541.403198	269.406189
471.475677	-48.887466	581.246277	306.455566
471.912811	-63.791622	564.524902	289.662720
472.350006	-30.013718	523.195068	319.788025
472.787048	-62.300926	534.514282	331.636597
473.224121	-35.973030	531.069580	274.347595
473.661072	-32.000175	523.687256	290.650757
474.098053	-29.020447	574.361572	331.143097
474.534943	-58.823105	522.210632	308.431000
474.971802	-70.748344	596.980103	311.887848
475.408630	-28.524019	592.063721	369.636139
475.845367	-50.377415	606.811768	320.775574
476.282104	-55.345352	613.693176	339.534698
476.718750	-24.054741	582.721558	349.898987
477.155426	-71.742325	583.213013	291.638794
477.591949	-46.403450	581.246277	316.825745
478.028503	-45.906876	587.146973	336.079346
478.464966	-40.939739	585.671814	333.117615
478.901428	-49.384068	591.080322	321.762970
479.337860	-49.880672	594.030151	372.596222
479.774170	-29.020447	593.538635	317.319366
480.210510	-47.893738	630.893494	307.443359
480.646698	-48.887329	621.065369	342.002472
481.082947	-44.913200	595.013672	329.168549
481.519073	-80.190979	643.668091	344.963806
481.955200	-27.530771	613.201843	349.405518
482.391266	-2.707480	647.598328	375.556244
482.827301	-14.124865	658.405151	344.963806
483.263306	-40.939739	693.269226	377.529388
483.699188	-70.251427	650.545959	410.078003
484.135101	-33.986568	690.323547	385.914673
484.570923	-23.558357	710.449524	329.662170
485.006744	-48.887196	714.375549	399.230377
485.442413	-61.307240	727.624878	439.653473
485.878174	-44.913334	764.905457	375.062714
486.313782	-31.503590	751.663452	424.374451
486.749390	-38.456329	766.867004	452.465363
487.184998	-64.288490	783.048218	433.739563
487.620453	-48.887329	728.606140	403.668274
488.055939	-34.483311	809.027405	441.624756
488.491333	-43.919945	770.299683	426.839233
488.926727	-58.326286	769.319153	413.036285
489.362030	-55.842140	761.472595	443.595856
489.797302	-28.027327	783.538330	459.362976
490.232513	-59.319923	789.421326	462.811340
490.667755	-59.319786	815.888306	441.131989
491.102905	-62.300926	868.792419	491.870300
491.537964	-35.476406	904.528931	529.283020
491.973022	-41.436272	956.387756	565.198792
492.407990	-70.748344	1009.186646	551.917175
492.842957	-34.483177	885.928894	538.632751
493.277832	-43.919807	868.302856	496.301971
493.712738	-40.443214	834.997314	477.588928
494.147491	-37.959553	818.828613	489.900726
494.582275	11.685232	851.162109	469.707855
495.017029	-49.880672	839.896301	483.006317
495.451660	-29.517014	832.057678	468.722870
495.886292	-19.089594	858.508667	485.468597
496.320831	-43.423256	905.018433	456.406769
496.755402	-13.628428	917.252380	485.468597
497.189850	-44.416637	973.013916	543.061218
497.624298	-38.952980	1058.039185	613.874939
498.058655	-58.326286	1135.647095	732.712708
498.493042	-43.919945	1217.071777	808.228821
498.927368	-33.986568	1290.131592	810.679260
499.361572	-22.068686	1214.148193	721.427429
499.795807	-37.463051	1108.810913	646.306152
500.229919	-67.269882	1030.197266	652.201355
500.664063	-55.345352	978.392029	543.553223
501.098083	-7.174866	952.964539	544.537109
501.532104	-44.416637	896.208313	517.962891
501.966064	-48.887329	843.815002	491.378052
502.399994	-38.952980	841.855652	514.517456
502.833893	-10.153490	819.808594	463.796844
503.267700	-24.551266	837.936584	492.362701
503.701477	-49.383930	880.543457	507.133270
504.135193	-60.313576	865.854431	432.753784
504.568909	-52.364563	863.895447	481.036316
505.002502	-49.384068	837.446594	442.610168
505.436127	-46.403450	846.264221	464.289307
505.869629	-48.887196	814.908508	507.133270
506.303162	-48.390465	836.956848	468.722870
506.736603	-51.371048	788.930969	480.051392
507.169983	-59.816608	834.507568	471.185516
507.603363	-56.338932	877.605957	495.317261
508.036621	-46.403450	833.037781	521.900635
508.469940	-9.656952	863.895691	485.961304
508.903107	-46.900299	839.896301	501.225525
509.336304	-42.926437	889.844971	509.102509
509.769379	-17.600172	897.187500	499.748413
510.202484	-37.959690	933.887939	493.347595
510.635529	-74.723969	916.762939	503.194916
511.068481	-39.449631	938.779724	553.884888
511.501434	-7.174866	924.592285	509.102631
511.934265	-63.791622	988.658264	515.994080
512.367126	-27.034222	956.876953	540.601013
512.799927	-18.593115	973.992065	511.563751
513.232605	-61.307240	878.585144	481.036316
513.665344	-38.953114	964.212524	510.579407
514.097961	-28.027327	938.779724	531.743469
514.530579	-52.364700	974.480530	524.853577
514.963135	-34.483177	1004.299194	569.625366
515.395691	-29.020447	1053.155273	582.411560
515.828064	-57.829475	1053.643799	590.279114
516.260498	-22.068821	1057.550659	590.770630
516.692871	-31.503590	1039.479126	610.434326
517.125183	-61.307240	1081.476929	584.378418
517.557373	-19.586075	1109.299316	552.408997
517.989624	-51.371048	1109.299316	576.510498
518.421753	-26.041000	1116.131226	589.295532
518.853943	-22.565329	1164.424072	602.569519
519.286072	-51.371048	1182.952393	588.312134
519.718018	-56.835735	1219.995361	601.586365
520.150024	-32.000042	1255.558960	598.145142
520.581909	-48.390465	1270.169189	630.584045
521.013855	-35.973030	1252.149536	671.846985
521.445679	-37.959553	1367.497437	661.042603
521.877502	-63.791622	1378.196045	713.084717
522.309204	-31.006737	1362.147949	682.649902
522.740906	-43.919945	1374.306030	675.775635
523.172546	-35.476543	1316.415771	691.487183
523.604187	-52.861328	1323.228394	648.762512
524.035767	-24.054876	1227.791748	627.144287
524.467224	-36.469654	1193.190063	634.514771
524.898682	-37.959553	1130.280640	628.618530
525.330078	-74.227020	1098.561768	599.620056
525.761475	-38.953114	1031.662720	589.787048
526.192749	-59.319923	1015.539001	550.441162
526.624023	-24.551401	993.546265	561.755554
527.055237	-41.933079	956.876953	554.868774
527.486389	-55.842140	932.909302	536.664673
527.917542	-54.351646	933.398621	562.247437
528.348572	-43.423119	969.591248	572.576050
528.779663	-60.810406	955.409729	553.392822
529.210571	-87.149658	996.479187	570.609009
529.641541	-53.855141	975.458374	595.195190
530.072388	-53.854870	990.613770	641.884705
530.503235	-14.124999	1035.571289	638.445557
530.934082	-50.874161	1100.026123	657.113159
531.364746	-60.313576	1153.695190	668.409668
531.795532	-8.167633	1194.164917	719.955200
532.226135	-27.034222	1288.671021	780.778137
532.656738	-61.307240	1456.930420	863.587280
533.087280	-7.174866	1566.150879	953.634399
533.517822	-25.048065	2075.345459	1216.277710
533.948242	-29.517147	3705.714111	1959.260498
534.378662	-32.496635	10877.281250	6040.814941
534.809082	-39.946285	26437.832031	16427.757813
535.239319	-14.124865	42666.574219	26735.820313
535.669617	-21.572317	51572.011719	30305.876953
536.099792	-53.358101	51967.824219	25943.455078
536.529968	-20.082697	45686.019531	22033.492188
536.960083	-47.893738	38117.578125	19029.146484
537.390137	-23.558357	31136.646484	16358.573242
537.820190	-53.854870	26119.320313	13554.956055
538.250183	-69.257607	22869.740234	11112.543945
538.680115	-67.269882	19986.201172	9152.624023
539.109985	-27.530771	17090.609375	7205.453613
539.539795	-24.054741	14217.277344	5959.530273
539.969543	-43.423119	11797.379883	4981.694824
540.399292	-22.068686	9528.269531	4047.493408
540.828979	-26.537540	7510.390137	3233.276611
541.258606	-37.462917	5639.270508	2489.138428
541.688171	-39.946285	4243.652344	1959.260498
542.117737	-32.000042	3183.573975	1537.219849
542.547302	-26.041134	2521.104492	1276.679321
542.976685	-25.048065	2116.795166	1059.685181
543.406128	-51.371048	1820.417114	877.787048
543.835388	-16.110786	1657.295044	817.539978
544.264771	-23.061840	1619.008057	793.034119
544.693970	-28.027327	1715.417603	845.955688
545.123230	-48.887196	2932.223389	1279.600586
545.552307	-49.384068	10162.656250	5467.883301
545.981506	-54.351646	19732.371094	11390.631836
546.410583	-6.182114	26051.476563	14483.365234
546.839539	-64.785484	25992.945313	11612.502930
547.268555	-57.829475	19759.062500	8126.864258
547.697449	-76.214981	13627.213867	6943.424316
548.126282	-33.489964	9280.707031	5842.852539
548.555054	-47.893604	6734.256348	4466.166016
548.983887	-4.196527	4849.808105	3083.669189
549.412598	-28.027327	3562.497314	2049.004639
549.841309	-22.565193	2620.820068	1403.171509
550.269958	-33.986568	2041.110107	1047.475098
550.698486	10.692781	1727.036987	842.036804
551.127075	-24.551401	1491.411987	743.506104
551.555481	-66.773125	1348.041870	682.158813
551.983948	-40.443077	1201.476440	624.195923
552.412292	-48.390465	1231.202026	617.315369
552.840698	-64.785484	1181.002563	646.797791
553.268860	-15.117749	1216.584595	654.657166
553.697205	-51.867805	1164.911987	657.604492
554.125366	-88.143784	1120.034790	621.247131
554.553467	-87.646858	1095.145386	598.145142
554.981628	-11.146309	1026.288574	566.182312
555.409607	-62.301064	997.456665	568.149780
555.837646	-72.239258	950.029846	573.067932
556.265564	-55.842140	945.138611	569.625366
556.693481	-57.829342	916.273987	521.900635
557.121338	-60.313576	900.613403	506.148712
557.549133	-74.723969	881.522583	506.640991
557.976929	-56.338932	862.916077	522.885071
558.404602	-42.429756	922.634949	543.061218
558.832275	-32.000175	888.865662	478.573761
559.259888	-79.196991	864.875122	512.548401
559.687439	-70.251427	894.250671	525.345703
560.114929	-45.906742	891.313599	529.775146
560.542419	-19.586210	841.365662	497.286560
560.969788	-44.913200	870.751160	497.778931
561.397156	-42.926437	868.302856	466.259827
561.824524	-50.377415	860.957336	470.692993
562.251770	-37.959553	850.672485	508.610229
562.679016	-30.013718	862.916077	484.976166
563.106140	-49.383930	847.243774	473.648499
563.533264	-23.061840	859.977905	437.682190
563.960327	-60.810406	853.611267	503.194916
564.387329	-72.736053	858.998230	498.271515
564.814331	-17.600037	832.547729	481.036316
565.241272	-27.530771	823.728699	456.406769
565.668213	-36.469788	837.446838	475.618744
566.094971	-10.153220	841.855652	506.148712
566.521790	-24.551401	863.405884	527.806641
566.948425	-77.208923	938.290405	557.820496
567.375183	-36.469654	1051.690308	600.603210
567.801819	-27.530771	1195.627319	780.778137
568.228394	-36.966419	1645.180908	1196.294922
568.654846	-31.503454	2284.800537	1717.049316
569.081421	-47.396881	2704.153320	1908.073730
569.507874	-46.403450	2699.844727	1768.355469
569.934265	-9.160554	2333.841553	1485.279297
570.360596	-55.842140	1865.858887	1244.536133
570.786865	-50.377548	1540.437134	1070.916138
571.213074	-27.530771	1287.210449	911.072144
571.639282	-48.887196	1191.727539	808.718689
572.065430	-11.642589	1094.168823	748.901978
572.491516	-41.932945	999.900574	634.023560
572.917603	-40.442944	980.836548	572.084534
573.343567	-65.779099	959.322266	533.219910
573.769531	-43.919807	947.095093	543.061218
574.195435	-68.263802	1023.357239	584.378418
574.621277	-53.855007	1079.035767	567.657837
575.047119	-34.483040	1192.215454	614.366577
575.472839	-63.294903	1535.584473	744.487183
575.898560	-53.854870	2240.543701	1085.563110
576.324158	-61.307240	4067.156494	2297.962646
576.749817	-65.282356	6211.859863	3953.921631
577.175293	-44.416637	7724.087402	4874.366699
577.600830	-41.932945	7746.997070	4306.993652
578.026306	5.730141	7081.933594	3478.167480
578.451721	-16.607244	7071.342285	4104.164551
578.877136	-58.823105	7852.323242	5290.937500
579.302429	-32.993229	8249.521484	5687.416992
579.727661	-43.423256	7649.380371	4678.669434
580.152832	-55.345352	6091.707520	3367.445801
580.578064	-16.110651	4570.883301	2788.546143
581.003113	-58.823105	3510.282715	2350.360352
581.428223	-25.047930	2690.748291	1877.636108
581.853271	-14.124865	2149.073242	1534.793457
582.278198	-21.075684	1704.280640	1120.703003
582.703125	-35.476406	1460.330688	897.857788
583.127930	-27.034086	1278.933472	759.692322
583.552795	-56.835735	1137.110962	689.523254
583.977539	-13.628293	1056.573975	658.586548
584.402283	-44.913200	1084.405884	654.165833
584.826965	-16.607244	1088.311523	634.023560
585.251587	-48.390331	1147.354614	647.780029
585.676208	-29.020447	1137.110718	649.253845
586.100647	-18.593115	1262.377197	725.352661
586.525208	-30.510292	1351.933594	800.877136
586.949524	-34.483040	1678.127075	1012.788147
587.373962	-59.816879	2390.541748	1386.641968
587.798218	-54.848564	4589.687500	2483.860352
588.222534	-53.358101	10013.105469	5848.897949
588.646729	-80.191116	17928.929688	11408.945313
589.070984	-64.785484	27118.474609	17830.718750
589.495117	-48.390465	34767.898438	21944.755859
589.919128	-22.565329	38883.226563	23156.556641
590.343201	-42.926437	38697.027344	21690.060547
590.767151	-43.919945	35220.324219	18933.818359
591.191101	-48.390331	30041.292969	16413.746094
591.614990	-31.006872	24769.505859	14210.393555
592.038818	-60.313576	20099.142578	11724.442383
592.462524	-50.377415	16604.021484	9549.687500
592.886292	-59.816879	13677.987305	7554.612793
593.310059	-40.442944	11503.448242	6076.098633
593.733582	-35.476543	9689.158203	4934.370605
594.157227	-13.628293	8453.830078	4107.941406
594.580750	-65.282356	7497.998047	3560.774414
595.004272	-39.946285	6746.260742	3185.655273
595.427673	-39.449631	6037.856934	2786.632568
595.851074	0.766948	5586.616699	2518.403320
596.274353	-61.307377	5124.782227	2342.190186
596.697632	-20.082697	4707.144531	2161.774170
597.120911	-40.442944	4373.247559	1985.807739
597.544067	-44.416637	4083.686035	1892.131470
597.967224	-38.456329	3850.627686	1747.546387
598.390320	11.685232	3609.941895	1631.790161
598.813354	-75.718018	3509.333496	1583.306763
599.236328	-16.607244	3266.898193	1518.292358
599.659241	-16.110786	3107.330811	1456.624146
600.082153	-16.110786	2942.251709	1352.113281
600.505005	-39.449631	2829.493164	1336.545898
600.927795	-32.993229	2688.833496	1276.679321
601.350525	-26.041134	2576.248535	1172.406738
601.773254	-21.572182	2510.551025	1164.604980
602.195862	-50.874294	2375.649658	1118.751343
602.618408	-64.785484	2303.554688	1057.731567
603.040955	-43.919945	2230.919922	1053.335938
603.463440	-51.371048	2126.431641	1003.502563
603.885925	-24.054741	2028.087524	947.276245
604.308350	-46.403450	1954.737305	891.005249
604.730652	-38.456196	1933.975464	932.112122
605.152893	-61.307240	1870.692017	893.942139
605.575195	-40.443077	1815.581421	861.138428
605.997375	-38.953114	1752.206909	847.914856
606.419495	-51.867668	1661.655762	830.769104
606.841553	-33.489830	1655.841187	757.730591
607.263672	-41.933079	1638.880737	755.278259
607.685608	-40.939739	1584.582153	770.481506
608.107605	-24.054741	1497.724243	691.977966
608.529480	-33.489964	1475.872925	701.304993
608.951294	-69.754517	1419.517334	712.593811
609.373108	-28.523884	1419.517334	684.613770
609.794800	-74.723969	1476.358398	729.768616
610.216553	-30.510292	1513.258667	713.575317
610.638123	-22.565329	1555.963623	706.213501
611.059753	-67.270012	1514.229492	689.032471
611.481262	-46.900162	1414.657349	686.577576
611.902832	-43.423119	1331.014038	646.306152
612.324219	-16.607244	1327.121338	617.806946
612.745605	-12.139143	1267.247437	620.264343
613.166931	-31.006872	1223.893921	602.078064
613.588196	-73.730064	1231.689697	590.770630
614.009460	-34.979790	1212.198486	531.251709
614.430664	-57.332672	1128.817261	595.687195
614.851807	-9.656952	1160.522949	606.502197
615.272827	-44.913200	1217.071777	629.109802
615.693909	-1.218472	1252.636230	765.577087
616.114929	-24.551401	1348.042236	770.481262
616.535889	-28.523884	1397.157837	734.675598
616.956787	-38.952980	1314.469238	670.864929
617.377563	-33.489964	1193.677856	634.515076
617.798340	-33.986568	1104.907104	617.807190
618.219055	-28.027327	1104.907104	544.537354
618.639832	-63.791622	1019.448242	573.559753
619.060364	-44.416637	1017.005005	522.884949
619.481018	-31.006872	935.355408	527.314392
619.901611	-37.959553	994.524353	481.036469
620.322083	-46.403450	993.546265	482.513885
620.742493	-53.855007	916.273682	505.164276
621.162842	-38.456467	889.844971	502.210297
621.583191	-50.377548	929.484680	498.271515
622.003418	-46.900162	913.338074	479.066254
622.423706	-66.276245	894.739807	477.096405
622.843872	-32.000175	853.121643	429.796356
623.264038	-56.835869	848.713318	439.653473
623.684143	-64.785484	817.848572	431.275208
624.104126	-52.364429	788.930969	464.289307
624.524170	-20.082697	813.928162	434.232422
624.944031	-32.000042	809.517883	415.008392
625.364014	-47.396881	783.538025	418.459167
625.783752	-67.766907	744.305481	373.582672
626.203552	-11.146309	759.020630	407.612701
626.623230	-62.301064	777.164368	388.873871
627.042969	-42.926437	780.596741	414.515137
627.462585	-50.874294	739.400024	400.216583
627.882141	-55.842140	728.115662	428.810913
628.301697	-25.048065	702.595886	391.339966
628.721130	-45.410034	731.059448	359.274811
629.140625	-39.449631	676.084900	367.169464
629.559998	-29.020447	698.669067	382.461884
629.979309	-28.027327	695.232788	345.457214
630.398560	-66.276108	651.528381	352.860107
630.817810	-44.416637	683.450012	360.755157
631.237000	-51.371048	664.789978	353.353577
631.656067	-50.874294	659.878479	358.781494
632.075195	-33.986568	655.457642	373.089386
632.494202	-20.579187	674.120728	340.521942
632.913208	-34.979790	607.794861	347.925140
633.332092	-13.628428	660.369690	346.937897
633.750977	-37.959553	633.350342	324.231598
634.169739	-19.089727	618.116760	326.700256
634.588562	-17.600037	630.893494	342.496033
635.007263	-38.952843	634.333008	317.319366
635.425964	-34.979790	651.036987	333.117615
635.844543	-34.979790	609.269531	328.181091
636.263123	-51.371048	614.676147	347.431396
636.681641	-58.326286	642.685547	293.614380
637.100037	-30.510292	601.404846	357.794678
637.518494	-50.377548	600.421387	324.231598
637.936829	-53.855007	558.622192	326.699982
638.355164	-30.510292	578.787476	353.353577
638.773438	-48.390465	519.749634	348.418549
639.191650	-61.804218	551.243164	326.206299
639.609863	-47.893738	523.194946	278.300110
640.027893	-49.383930	556.162537	293.614380
640.445984	-47.396881	560.589844	328.675018
640.863953	-32.000042	559.606079	304.480377
641.281921	-26.537540	520.734009	290.650757
641.699829	-72.239258	556.162537	270.394684
642.117676	-64.785484	542.879089	308.431000
642.535461	-38.456196	522.210632	296.084106
642.953247	-28.523884	549.767151	265.453125
643.370972	-24.551537	533.037903	283.734802
643.788635	-28.027327	537.466614	268.912201
644.206177	-56.835735	563.049194	296.578003
644.623718	-34.483177	550.751160	255.074829
645.041260	-53.358101	553.210754	292.626373
645.458618	-51.867805	488.241211	305.467926
645.876099	-67.766769	547.799438	280.276398
646.293396	-21.075684	476.914124	306.455841
646.710693	-22.068686	522.702942	271.877136
647.127991	-32.993229	539.927002	312.381500
647.545166	-32.993229	494.150116	260.017090
647.962341	14.166423	498.089294	295.096283
648.379333	-51.867805	523.687500	265.947266
648.796448	-32.993229	504.489777	264.464935
649.213379	-36.966419	520.734009	296.578003
649.630310	-27.034222	511.381836	285.710938
650.047180	-11.642589	483.809113	256.063293
650.463989	-56.835869	510.889465	301.023132
650.880859	-38.952980	479.376465	282.252625
651.297546	-16.110786	467.555389	246.671906
651.714233	-21.572182	428.135437	278.794434
652.130859	-48.887062	511.381836	240.245407
652.547485	-66.772987	459.673248	278.794434
652.963928	-31.503454	479.376740	274.347595
653.380432	-43.422985	522.702820	273.853363
653.796814	-17.600172	505.474335	275.335754
654.213196	-29.020447	576.328491	300.035400
654.629578	-56.835735	697.687317	453.450867
655.045837	-29.517014	820.788574	579.461243
655.462036	-50.874294	937.801392	583.886902
655.878174	-35.476543	924.592041	489.900726
656.294312	-59.319923	824.708374	433.739563
656.710327	-30.510292	698.178345	395.778290
657.126404	-40.442944	683.941101	378.515900
657.542358	-40.442944	577.312134	403.668152
657.958252	-51.867668	542.387085	311.887848
658.374084	-17.600307	529.593079	320.281982
658.789917	-40.939739	496.119720	288.180695
659.205688	-8.664159	510.889465	247.166199
659.621338	-22.068686	491.195801	285.710663
660.037048	-58.326286	446.370087	247.660507
660.452637	-45.906876	428.135590	261.993835
660.868164	-47.893738	442.920807	247.660507
661.283691	-26.537676	439.471344	278.300354
661.699158	-25.544462	440.949585	230.851624
662.114502	-42.926437	442.428040	223.434647
662.529846	-25.047930	424.685059	255.074829
662.945129	-76.214981	404.964966	210.081436
663.360413	-41.436409	421.234497	218.983856
663.775635	-20.082697	370.440491	245.683426
664.190674	-33.986568	403.485901	219.478363
664.605835	-38.953114	431.585663	234.312653
665.020813	-33.986568	388.198242	225.412430
665.435791	-38.456329	447.848450	253.591980
665.850769	-41.436272	423.699371	231.346039
666.265625	-56.835735	420.741547	213.049179
666.680420	-26.537676	401.020111	254.580460
667.095215	-26.537540	383.265900	226.895966
667.509949	-30.510292	425.670868	218.489334
667.924622	-35.476406	476.421448	227.884735
668.339233	-32.993229	429.614227	213.543747
668.753784	-5.685879	449.326752	228.873886
669.168335	-19.586075	490.210846	221.456284
669.582825	-83.173187	542.387085	250.626175
669.997192	-50.874294	1157.109131	528.298767
670.411560	-53.854870	2545.084473	1128.510010
670.825867	-34.979790	3806.605957	1555.657837
671.240173	-50.874294	4300.221680	1501.787598
671.654358	-38.456329	3608.519043	1118.751587
672.068481	-49.383930	2653.875000	871.421814
672.482605	-83.173187	1829.120605	750.373291
672.896667	-59.816879	1331.987183	685.595703
673.310669	-45.409901	1031.174316	608.959900
673.724609	-41.933079	849.203186	480.051392
674.138489	-20.579187	710.449219	382.955261
674.552307	-20.082561	555.178894	293.120331
674.966064	-57.829475	471.003479	263.476501
675.379822	-39.946285	423.699127	278.300354
675.793579	-55.842140	407.430328	215.027435
676.207153	-37.463051	413.346802	237.773468
676.620789	-48.887196	414.332794	218.983856
677.034241	-63.791756	388.691559	201.672653
677.447754	-15.614063	385.732117	191.283371
677.861206	-39.946285	361.065918	175.448837
678.274597	-83.173187	361.066193	236.784851
678.687866	-40.939606	397.568390	213.049042
679.101135	-53.854870	361.066193	169.509827
679.514404	-5.189379	343.794098	191.283371
679.927551	-54.848564	349.716339	187.820068
680.340698	-61.307240	366.493225	191.778107
680.753723	-28.027327	340.338989	206.619049
681.166748	-40.443077	333.428497	178.418137
681.579712	-31.006872	345.274658	194.746475
681.992615	-26.537540	317.136597	173.964081
682.405457	-20.579054	333.428772	163.075394
682.818298	-44.913200	323.555176	173.964081
683.231018	-23.061705	309.729767	210.081436
683.643738	-25.544462	303.803619	192.272858
684.056335	-31.503454	346.755463	185.346024
684.468994	-22.565193	341.326385	186.830368
684.881531	-22.068821	372.906921	190.788483
685.293945	-25.544462	375.373657	171.489594
685.706482	-32.000175	368.960052	174.458954
686.118774	-46.403450	347.742493	226.895966
686.531128	-59.320057	343.300537	203.651123
686.943481	-50.377277	310.717499	191.283371
687.355713	-72.239258	308.248199	168.025177
687.767883	-54.351784	287.503876	166.540237
688.179932	-57.829342	313.186523	159.115341
688.592041	-86.652603	253.409042	155.650223
689.004089	-55.842274	274.164703	170.994705
689.416016	-4.196661	307.260590	192.767593
689.827881	-67.766632	285.033813	193.262436
690.239868	-51.867805	320.592957	181.881973
690.651611	-65.779099	347.742493	194.746475
691.063354	-36.966419	359.585846	195.735901
691.475098	-16.607244	354.157715	201.177856
691.886719	-67.766907	318.123932	138.320541
692.298340	-47.396881	296.889252	191.778107
692.709900	-59.816879	296.395203	175.448837
693.121460	-44.913200	267.246918	162.580551
693.532837	-63.791622	280.093536	148.719101
693.944214	-43.423256	264.776184	196.725449
694.355652	-30.510292	297.877045	183.861359
694.766846	-43.423256	278.611542	176.438858
695.178101	-38.456329	251.432022	179.407684
695.589294	-35.476406	279.105591	149.213913
696.000366	-13.628293	235.612961	126.930206
696.411438	-50.377415	233.635239	112.069832
696.822510	-37.463051	273.176666	142.282196
697.233459	-48.390465	247.477539	158.125198
697.644409	-53.854870	262.799408	169.014908
698.055298	-14.621305	279.599518	114.546860
698.466064	-48.390465	233.635239	154.164963
698.876831	-48.887196	258.351563	110.088112
699.287537	-43.919945	263.787872	145.253113
699.698181	-33.489830	217.811890	152.679688
700.108826	-38.456196	245.994766	143.272476
700.519348	-46.403450	253.409042	133.863800
700.929810	-39.449631	234.624176	125.444252
701.340271	-23.061840	242.534271	141.786926
701.750732	-39.449631	220.284500	131.882935
702.161011	-7.174866	263.293579	144.262863
702.571350	-39.946419	255.880356	142.777344
702.981567	-27.034222	217.317093	122.472641
703.391724	-61.804218	235.612961	120.491127
703.801880	-55.345352	225.229675	112.069702
704.211914	-25.544462	238.084854	136.339935
704.621948	-50.377415	241.545593	139.311005
705.031921	-50.377415	197.532013	127.425468
705.441895	-50.377415	254.891891	138.815979
705.851746	-33.986568	230.668747	135.844757
706.261536	-52.364429	232.151886	116.528435
706.671265	-16.110786	211.382401	116.033089
707.081055	-43.919945	192.089996	124.453949
707.490662	-63.294903	208.909302	146.738312
707.900330	-31.006737	238.579498	140.796616
708.309814	-41.436409	248.466110	118.509811
708.719299	-48.887196	228.196426	119.995796
709.128784	-41.933079	246.488953	140.301331
709.538147	-50.874432	211.382401	128.911377
709.947510	-56.338932	213.360687	68.458229
710.356750	-30.013582	213.855255	172.479279
710.766052	-59.816879	192.584473	134.854492
711.175171	-12.139009	218.306427	117.023788
711.584290	-58.326286	241.051254	118.509682
711.993347	-27.034222	202.973526	99.187813
712.402405	-12.139009	247.971970	118.014473
712.811401	-35.476406	210.392960	106.124611
713.220276	-10.649762	185.657532	115.537590
713.629150	-63.791622	208.414566	106.124611
714.037964	-53.358101	218.306427	114.051491
714.446777	-25.048065	208.909302	128.416107
714.855408	-41.933079	211.876846	110.088249
715.264099	-19.586210	225.724014	114.546860
715.672668	-41.436409	240.062439	137.330307
716.081177	-41.933212	171.801453	92.745781
716.489746	-39.449493	207.919952	133.863800
716.898132	-54.848427	218.306427	124.453819
717.306519	-11.642589	197.532013	123.958397
717.714844	-38.953114	205.446716	113.555977
718.123108	-31.503321	185.657669	110.583649
718.531372	-30.510292	211.382401	107.115608
718.939514	-45.409901	170.811523	115.537590
719.347595	-28.523884	193.079315	110.583649
719.755676	-74.227020	166.851974	142.777344
720.163696	-34.979790	169.326630	117.519127
720.571716	-24.054876	174.276062	118.014473
720.979614	-52.364563	178.729828	104.638283
721.387451	-90.132233	208.909302	80.355408
721.795227	-22.565193	184.667953	83.329369
722.202942	-20.082697	184.667953	115.537590
722.610718	-4.196527	182.688599	81.842339
723.018311	-43.920078	158.437119	119.500610
723.425903	-26.041000	204.457596	75.398438
723.833374	-24.054876	168.831711	121.977203
724.240906	-46.403450	182.688599	76.885490
724.648376	-58.326286	174.770935	102.656311
725.055725	-43.919945	169.821823	98.196823
725.463013	-43.919945	166.357040	89.276848
725.870300	-54.351917	166.357040	72.919930
726.277466	-73.232994	168.336914	109.097298
726.684631	-7.671247	163.882126	87.294373
727.091797	-38.456329	182.193909	89.772423
727.498779	-25.544462	187.636795	110.088249
727.905823	-45.410034	166.357040	89.276711
728.312805	-4.692883	140.118195	130.892471
728.719666	-6.678353	162.397079	109.097435
729.126526	-37.959553	182.688858	87.789963
729.533264	-36.966419	170.316605	95.223602
729.940063	-23.558357	182.688599	111.079056
730.346680	-15.117749	173.286148	93.737000
730.753357	-52.861462	127.737679	90.763557
731.159851	-51.371048	160.417267	89.276711
731.566406	-39.946419	164.872177	77.381302
731.972900	-48.390465	181.699097	93.241325
732.379272	-12.635432	171.801453	111.574448
732.785645	-24.551266	159.922134	97.205811
733.191895	-52.861462	141.108643	109.097435
733.598206	-11.642589	140.613480	77.876976
734.004333	-53.854870	162.892319	74.902748
734.410522	-46.900162	192.584610	90.763557
734.816528	-28.027327	142.594070	101.665512
735.222656	-22.565193	169.326630	101.169899
735.628662	-30.013718	193.079193	96.710297
736.034546	-25.048065	169.326630	64.491844
736.440430	-6.182114	160.417267	42.176853
736.846252	-27.530771	163.387161	78.372643
737.252014	-52.861462	134.671066	104.638412
737.657715	-68.263672	181.699097	81.346832
738.063354	-27.034222	159.922272	90.267990
738.468933	-33.489830	172.791260	101.169899
738.874512	-39.449631	152.991501	100.178802
739.280029	-68.263802	167.841995	121.481888
739.685486	-23.558357	175.265808	122.472504
740.090881	-34.979790	170.811523	103.647232
740.496216	-41.436409	158.437119	89.276711
740.901550	-49.880672	173.286148	111.574585
741.306702	-41.933079	169.326904	106.620178
741.711914	-39.946419	173.781174	79.859756
742.117004	-40.443077	168.831711	64.491844
742.522095	-41.933079	163.882385	100.674423
742.927124	-73.232994	157.446960	107.611038
743.332031	-69.754517	166.357040	104.638145
743.737000	-12.635432	126.747025	112.069969
744.141785	-33.986435	143.089340	103.151909
744.546631	-29.517147	157.941971	91.259254
744.951355	-27.530771	190.110870	59.037868
745.356079	-27.530771	161.407242	81.842339
745.760620	-31.503454	136.156662	90.267990
746.165283	-48.887329	152.496582	61.517086
746.569824	-37.959824	143.089340	87.790100
746.974243	-30.510292	164.377075	87.789963
747.378723	-36.469654	142.594070	93.241455
747.783020	-35.973164	155.466721	104.142822
748.187378	-5.685744	131.699768	117.023788
748.591614	-22.565329	144.574722	92.745781
748.995850	-63.791622	182.193909	80.851051
749.399963	-58.326286	130.709167	83.329369
749.804077	-14.621305	129.223434	79.859756
750.208130	-58.326286	159.922272	81.842476
750.612122	-35.973030	148.040482	84.816360
751.016052	-48.390331	117.335915	76.885490
751.419922	-47.893738	133.185425	88.781136
751.823792	-31.006737	147.050415	75.894257
752.227478	-39.449631	151.011246	68.953979
752.631226	-43.919945	141.108643	70.937057
753.034851	-49.384068	121.793869	44.160553
753.438477	-60.810406	123.775200	44.160820
753.842102	-32.993229	102.473053	88.285553
754.245544	-64.288490	129.718552	63.500408
754.648987	-31.006737	138.632828	83.329369
755.052368	-53.854870	111.391083	67.466728
755.455750	-25.048065	98.509056	84.320747
755.859009	-9.160554	87.606659	50.111927
756.262268	-40.442944	123.775200	56.558689
756.665405	-65.282356	109.409332	91.754814
757.068542	-57.829475	150.020966	44.160686
757.471680	-48.390465	99.995674	60.525330
757.874634	-36.469788	125.756340	47.136314
758.277588	-40.442944	124.270622	52.095627
758.680420	-18.096777	123.775070	41.680748
759.083374	-58.326286	123.775200	30.271791
759.486084	-62.301064	107.923088	41.680748
759.888916	-45.906876	80.667732	42.672821
760.291504	-39.449631	119.317131	87.294373
760.694214	-52.364429	116.840302	47.632236
761.096802	-50.874294	115.849731	85.311836
761.499268	-53.358101	147.050415	54.575130
761.901733	-14.124865	102.472923	46.640385
762.304199	-39.946285	133.680649	50.607956
762.706543	-41.932945	137.147156	66.970833
763.108826	-23.061840	96.526886	57.550236
763.511108	-55.842140	103.464119	59.533695
763.913208	-40.939739	82.154655	66.475075
764.315369	-35.476406	109.904739	60.525463
764.717529	-9.160554	99.004555	46.640385
765.119568	-43.919807	121.793869	58.542042
765.521545	-50.874294	144.574722	73.911346
765.923462	-34.483040	287.504150	159.610352
766.325317	-41.436272	321.086548	223.929016
766.727112	-36.966419	365.506622	211.565186
767.128845	-44.913471	359.585846	142.777344
767.530518	-21.572317	349.716614	129.901993
767.932251	-49.880806	278.117249	128.911377
768.333862	-39.946285	223.746109	113.556252
768.735413	-40.939739	160.417267	106.124611
769.136841	-70.748344	183.678482	148.719101
769.538269	-29.020447	235.613098	196.230743
769.939636	-32.496635	252.420410	173.964081
770.341003	-60.810539	260.328369	138.815979
770.742249	-47.396881	288.491943	138.320801
771.143433	-65.282356	207.920090	98.692451
771.544617	-46.403450	128.232941	105.629173
771.945740	-43.919945	135.661453	105.629173
772.346802	-49.384068	122.784744	76.389946
772.747803	-21.572182	139.128006	76.885628
773.148682	-6.678488	116.345085	59.037868
773.549622	-43.422985	109.409470	45.152580
773.950439	-25.544462	92.066940	68.458099
774.351196	-58.823238	101.977585	69.449715
774.751892	-46.403450	103.463989	58.046074
775.152588	-52.861462	120.803375	8.440204
775.553162	-35.973030	113.868134	36.224552
775.953735	-25.544462	91.571381	69.449715
776.354309	-25.048065	63.316895	30.271791
776.754639	-33.489830	95.040451	43.664600
777.155090	-32.993500	110.400421	36.224689
777.555420	0.766948	83.641541	6.951304
777.955750	-36.469788	99.004555	7.943953
778.355896	-20.579187	80.172089	28.783712
778.756104	-23.061840	106.932228	30.767857
779.156189	-36.966419	87.606529	34.736488
779.556274	-45.906742	104.454895	64.491844
779.956299	-5.685879	76.702156	8.936315
780.356201	-60.810406	72.736450	-10.421066
780.756165	-57.829475	81.163513	31.264050
781.156006	-31.503454	59.845993	18.364613
781.555786	-33.986568	91.075829	57.054531
781.955505	-9.656952	92.562492	39.200848
782.355225	-44.913334	74.223701	38.704720
782.754761	-46.403450	77.197830	54.079132
783.154358	2.752167	98.508919	30.272062
783.553894	-29.020447	98.509056	45.648518
783.953369	-43.919945	109.409470	25.310928
784.352783	-40.443077	100.491158	31.264050
784.752075	-47.893738	94.544655	1.492044
785.151367	-44.416637	69.266365	53.087387
785.550598	-24.551401	43.977116	29.775860
785.949768	-36.966419	77.197968	24.814817
786.348877	-32.496635	75.214966	32.256157
786.747986	-33.986568	69.266228	42.176720
787.147034	-34.483040	36.041096	59.037868
787.545959	-34.483177	66.787468	43.168644
787.944885	12.181586	55.879169	36.720703
788.343750	-35.973164	52.903843	24.318569
788.742493	-43.919807	66.291702	23.326464
789.141235	-54.848564	60.341946	23.822588
789.539917	-28.027327	99.500046	7.447698
789.938538	-52.364563	76.206474	20.845524
790.337158	-11.146309	71.249290	36.224689
790.735718	-63.294765	62.821106	7.943818
791.134094	-48.887196	75.710785	19.853226
791.532532	-20.579187	80.171951	15.883599
791.930847	-41.933079	69.266228	37.712719
792.329224	-45.409901	79.676430	21.341532
792.727417	-35.476543	52.407967	41.184914
793.125610	-44.913200	36.041096	22.830204
793.523682	-5.685609	75.215096	28.287497
793.921753	-36.469654	42.985207	-9.428260
794.319824	-24.055012	44.969147	37.712719
794.717773	-39.946285	56.871002	-13.896020
795.115723	-30.510292	51.912216	57.550373
795.513550	-14.124999	45.464954	20.349377
795.911377	-9.656952	45.464954	56.062702
796.309082	-12.139143	77.197968	31.760107
796.706787	-63.791622	51.416328	24.318569
797.104370	-53.855007	72.736588	25.310793
797.501953	-61.804218	73.232300	35.232513
797.899536	-62.797909	91.571381	66.475075
798.296936	-67.766907	62.821106	70.441193
798.694397	-61.307377	49.928505	14.395021
799.091736	-49.383930	49.432468	36.720703
799.489014	-31.503454	70.257706	13.402617
799.886230	-18.096777	40.505222	62.508686
800.283447	-43.919945	51.416195	47.632374
800.680542	-29.517147	57.862679	22.830204
801.077637	-26.041000	47.448811	45.648518
801.474670	-43.919945	62.325172	16.379919
801.871643	-39.449631	63.316761	24.318569
802.268555	-62.301064	22.646566	20.845524
802.665405	-39.946419	93.058174	22.830069
803.062256	-36.469788	53.895729	48.128426
803.458923	-21.572182	46.457092	16.380054
803.855652	-44.416637	71.249290	30.271927
804.252258	-58.822968	41.993145	14.891354
804.648804	-27.034222	29.096170	12.410194
805.045410	-37.463051	67.283226	8.440068
805.441833	-27.530771	72.736588	29.279787
805.838257	-35.476543	69.761971	28.287497
806.234619	-49.880672	48.936695	22.334074
806.630859	-32.496635	54.391590	8.936450
807.027100	-31.006737	56.871002	38.704720
807.423279	-38.952980	36.040958	29.279787
807.819458	-76.214981	46.456959	32.752338
808.215515	-41.933079	32.568867	17.868582
808.611572	-14.124999	47.448811	1.988214
809.007507	-71.742325	61.829372	29.279787
809.403381	-36.469654	58.854481	6.951304
809.799194	-58.822968	67.778984	6.455041
810.195068	-49.880672	62.325172	13.898821
810.590759	-23.061840	66.291702	20.349377
810.986450	-73.233131	83.641541	25.806896
811.382080	-7.671382	31.576496	18.860912
811.777649	-62.301064	62.821106	13.898821
812.173157	-73.233131	65.795937	6.951439
812.568665	-62.300926	60.837761	25.310793
812.964050	-25.544462	58.854347	19.853226
813.359375	-58.822968	33.064777	26.799231
813.754639	-39.946285	59.845993	31.760107
814.149841	-60.810406	35.048916	7.447563
814.545105	-43.423256	26.615606	33.248249
814.940186	-29.517147	40.505222	4.469946
815.335266	-46.900162	56.870865	-10.421066
815.730347	-51.371048	50.424408	42.672550
816.125244	-13.628293	42.489243	33.248249
816.520203	-44.913200	70.753563	55.566849
816.914978	-39.449631	57.862679	48.128288
817.309753	-38.953114	211.876846	201.177856
817.704468	-49.383930	447.848450	462.318848
818.099182	-63.791622	839.406311	667.427185
818.493774	-26.041000	1242.894287	889.046753
818.888367	-25.544462	1722.195923	1134.364380
819.282898	-37.463051	2046.897339	1298.587280
819.677307	-36.469788	2317.498047	1215.790283
820.071716	-37.959553	2039.663452	967.816528
820.466003	-51.867805	1583.611938	717.010620
820.860291	-43.919945	1195.140259	586.837280
821.254517	-33.489964	856.549744	484.483826
821.648743	-36.469788	568.951416	395.285187
822.042786	-49.880672	384.252625	291.144714
822.436890	-6.182114	307.260590	227.390549
822.830872	-16.110786	208.909302	160.600479
823.224792	-41.933079	140.118454	146.738312
823.618774	-35.973030	145.069839	89.276848
824.012512	-25.544598	83.146049	60.029514
824.406311	-38.456329	102.473053	65.979301
824.799988	-29.517014	68.274734	39.200848
825.193665	-32.496635	49.432606	35.232647
825.587280	-44.416637	63.812687	30.271927
825.980835	-41.436409	49.928642	44.160686
826.374329	-61.804218	66.291702	15.883734
826.767761	-23.061840	41.993275	28.783577
827.161194	-45.409901	71.745018	31.264050
827.554443	-52.364700	53.895729	14.891354
827.947754	-73.730202	20.662016	35.728672
828.340942	-44.416637	34.553020	1.492044
828.734131	-57.829475	60.837761	15.387546
829.127136	-54.848564	62.325172	61.516949
829.520264	-38.456196	57.862679	30.271927
829.913208	-37.959553	28.103876	58.046211
830.306152	-44.913334	29.096170	-13.896155
830.699097	-26.537676	27.607925	15.883599
831.091797	-40.939739	74.223839	9.929066
831.484619	-25.544462	20.165731	15.387411
831.877319	-58.822968	44.473064	39.696835
832.270020	-70.748344	73.728134	12.906272
832.662537	-12.139009	28.599960	2.981081
833.055054	-41.933079	45.465088	10.425165
833.447510	-49.383930	50.920303	14.891354
833.839966	-31.503590	14.707692	34.736488
834.232361	-63.294765	25.623541	7.943818
834.624634	-56.835735	-4.648067	-6.449807
835.016907	-38.952980	36.537109	-4.464345
835.409058	-13.628428	23.142694	40.192688
835.801208	-10.153356	56.375153	4.469946
836.193298	-13.131995	-8.122680	-10.917340
836.585327	-39.449631	26.615606	10.921394
836.977295	-49.880672	10.241624	3.477239
837.369202	-38.953114	10.241624	-9.924661
837.761047	-51.371048	17.684929	-4.960704
838.152832	-30.510292	46.952885	1.988214
838.544617	-45.410034	26.119507	15.387546
838.936218	-45.906742	52.407967	5.462502
839.327942	-40.443214	38.521133	-9.924661
839.719421	-22.565329	43.977253	37.712585
840.111023	-26.040865	18.677399	-6.449807
840.502380	-57.332672	50.424408	8.440204
840.893860	-41.933079	12.226525	-5.456933
841.285217	-47.893738	39.017262	7.943818
841.676453	-77.705894	11.730441	-3.471504
842.067749	-8.167768	36.041229	0.499152
842.458862	-41.436272	42.985207	-9.924526
842.849976	-61.307240	8.256658	10.425300
843.241028	-23.558357	36.537109	33.248249
843.632019	-51.371048	15.203887	8.440204
844.022949	-41.933079	9.745389	15.883599
844.413879	-51.867805	11.234083	7.447563
844.804749	-35.973030	40.505222	14.891354
845.195496	-48.390331	33.064777	22.830069
845.586182	-53.358101	9.745389	0.995735
845.976807	-68.760567	16.692444	-17.371449
846.367432	-70.748482	19.173424	-28.791677
846.757996	-67.766769	20.662016	16.379784
847.148499	-48.390465	2.300815	9.432693
847.538879	-24.055012	-0.677061	-10.421066
847.929260	-11.146173	7.263879	-5.456933
848.319641	-33.986568	-18.051544	-5.456933
848.709839	-40.939739	16.692579	3.973662
849.100098	-53.358101	27.607925	14.891219
849.490234	-14.124865	28.103876	-9.924526
849.880310	-26.537540	11.233949	-6.449672
850.270325	-35.973030	34.553020	-8.435336
850.660339	-50.377415	16.692579	-25.812244
851.050171	-45.906876	31.576496	8.936450
851.440125	-40.443077	65.795937	16.876234
851.829895	-47.397018	38.025265	-36.240990
852.219604	-20.579187	6.271488	21.837940
852.609314	-28.027327	34.056854	-8.435336
852.998901	-72.239258	10.241624	-14.392592
853.388550	-49.880806	33.064777	-9.428260
853.778015	-48.390331	7.264014	-1.486143
854.167480	-40.939739	7.760270	-12.903290
854.556885	-20.579187	2.300950	-32.764584
854.946228	-39.449631	-19.044632	-38.724037
855.335571	-28.027327	30.088314	-39.220821
855.724731	-48.390331	21.654299	-28.791542
856.113953	-51.867805	-3.655087	43.664738
856.503052	-47.397018	2.300950	-19.853966
856.892151	-22.565329	11.234083	-20.846947
857.281067	-35.476543	-15.569239	5.958773
857.670105	-42.926571	-21.527220	23.326195
858.058960	-52.861195	24.135073	12.410194
858.447754	-54.848564	-19.044632	-11.413889
858.836609	-47.397152	25.623270	6.951304
859.225281	-59.319923	48.936562	11.913977
859.613892	-55.842140	33.560684	14.395021
860.002502	-14.124865	25.623270	-18.364388
860.391052	-6.181979	-6.633399	-17.867916
860.779541	-17.600172	4.286252	-18.861000
861.167969	-47.397018	10.737856	4.966091
861.556335	-60.313576	-0.676926	9.432557
861.944702	-53.854870	-17.058744	-19.853830
862.332947	-32.000042	20.165731	24.814817
862.721069	-34.483177	-0.180603	-23.329611
863.109253	-28.027327	-10.604671	23.822453
863.497314	-16.110786	42.985207	17.868446
863.885376	-58.326286	6.271353	17.868582
864.273315	-20.082697	-1.173388	10.425165
864.661255	-31.006737	-0.676926	-25.315710
865.049072	-73.729935	-8.122680	-22.833097
865.436890	-69.257607	21.654299	-21.839947
865.824707	-51.371048	12.226525	20.845524
866.212280	-49.383930	22.646566	-21.840080
866.599915	-42.926571	53.399990	1.988214
866.987488	-48.887196	22.646566	-28.294983
867.375061	-24.054741	27.607925	-1.486008
867.762451	-49.880672	25.623541	0.499287
868.149841	-40.939739	29.592243	6.951304
868.537170	-48.887196	49.928505	-10.917340
868.924438	-38.953114	-4.647932	-13.896155
869.311707	-85.161461	3.789967	2.981081
869.698853	-11.642589	26.119507	10.425165
870.085938	6.722675	-0.180603	-4.464075
870.472961	-40.443077	-9.611861	-7.938812
870.859985	-50.377415	22.646566	-6.449672
871.246887	-46.403450	13.219086	3.973527
871.633789	-31.006872	29.592243	-3.471504
872.020569	-54.351784	-10.108264	10.921394
872.407349	-43.423119	21.654299	2.484650
872.794067	-59.816879	-24.506298	5.462502
873.180725	-16.110786	6.271353	-5.953435
873.567322	-20.579187	-15.569239	-30.281384
873.953796	-28.027327	22.150436	-31.771128
874.340332	-33.986568	28.600092	-42.200935
874.726624	-44.913334	1.804648	22.334074
875.113037	-66.275970	24.631052	23.326330
875.499329	-34.979790	11.233949	10.425165
875.885559	-29.517147	16.692579	-10.917340
876.271729	-53.358101	7.264014	-0.989543
876.657898	-62.301064	-0.677061	-0.989678
877.044006	-53.358101	11.233949	-7.939082
877.429932	-28.523884	11.730307	-37.234253
877.815918	-57.829475	22.646566	19.357071
878.201782	-34.483177	-3.655087	-21.839947
878.587585	-31.503321	-0.180738	-8.931728
878.973389	-44.416637	-4.647932	6.455041
879.359070	-16.110786	-9.115463	-4.464345
879.744751	-25.544462	26.615606	-14.889171
880.130310	-2.707480	0.812031	-10.421066
880.515930	-36.469788	25.623405	-35.247478
880.901367	-59.816879	6.271488	13.402617
881.286804	-30.013718	-23.513254	4.966226
881.672180	-26.041000	13.715293	-11.910441
882.057434	-23.558357	-1.173388	3.477239
882.442749	-51.867805	35.049049	-14.392592
882.827942	-36.966419	10.241624	-11.414024
883.213013	-39.449631	16.692579	0.995735
883.598145	-24.054876	18.181099	3.477239
883.983154	-47.893604	-4.151440	-18.364388
884.368042	-46.403450	17.188755	-26.308784
884.753052	-39.946419	-0.677061	-24.819044
885.137817	-50.377415	-12.590340	11.913977
885.522644	-17.600172	-2.166055	2.980947
885.907349	-34.483040	20.165867	-4.960569
886.292053	-49.383930	-33.444721	-41.207458
886.676636	-31.503454	4.286252	-23.826263
887.061157	-27.530771	-12.590474	-16.378389
887.445740	-26.041000	-24.009775	-3.967720
887.830078	-26.537540	-15.569239	-27.302145
888.214539	-8.664023	32.568733	-6.449942
888.598816	-65.779228	-14.079770	13.402752
888.983093	-26.041134	-6.137026	-43.194294
889.367249	-10.153356	36.041096	13.898821
889.751465	-78.699997	-16.065691	-1.486008
890.135498	-77.208923	-11.597497	-31.771128
890.519531	-50.874294	-13.086902	-3.967855
890.903503	-52.364563	4.782534	-2.478815
891.287415	-32.496635	-2.662530	19.357071
891.671326	-51.371048	-4.647932	21.837805
892.055054	-46.900299	-9.115463	-19.853966
892.438843	-36.469788	-15.072925	-20.846947
892.822510	-21.572182	6.271353	21.341532
893.206116	-42.926437	6.271353	-17.371449
893.589661	-20.579187	7.263879	-24.819178
893.973206	-48.390465	9.249149	-16.378254
894.356628	-32.000042	15.700076	-5.953300
894.739990	-49.880806	0.315716	-1.486143
895.123352	-31.006737	-1.173523	1.492044
895.506592	-39.449764	-8.122680	-23.329475
895.889832	-46.900162	1.308342	-34.254391
896.272949	-37.463051	-3.655087	-19.357346
896.656067	-33.986435	15.700076	-26.308784
897.039063	-41.436409	-33.444855	-24.322651
897.422058	-69.754517	-3.158874	-34.750866
897.804993	-26.537540	-36.424679	-26.805326
898.187866	-42.926437	22.150572	-29.288378
898.570618	-44.416637	-5.144292	-2.975157
898.953369	-25.047930	-32.948257	-19.357346
899.336121	-23.558357	-5.640657	-35.744232
899.718689	-64.785484	14.211360	-5.456933
900.101257	-49.880672	-4.151575	-12.903155
900.483704	-29.020582	-10.604671	0.002970
900.866211	-32.993229	-18.051544	-25.812380
901.248596	-20.579054	-9.611861	-2.975157
901.630920	-28.027327	-13.086902	-11.910441
902.013184	-25.048065	29.096306	-26.308784
902.395386	-38.456329	35.545074	23.326330
902.777588	-43.919945	-29.968611	5.958638
903.159668	-6.182114	18.677128	-15.881934
903.541687	-49.383930	-1.173523	-14.392592
903.923645	-28.027327	11.730171	35.728672
904.305603	-44.416500	-2.662530	-28.791677
904.687500	-33.489830	5.278811	0.499152
905.069275	-0.722010	-10.604671	2.484650
905.451050	-45.906742	-1.669720	27.791412
905.832642	-49.880672	30.088314	-6.449942
906.214294	-53.358101	32.568600	4.470081
906.595825	-86.155548	4.782534	1.492179
906.977417	-6.678353	7.264014	-3.967720
907.358826	-38.456329	-4.151575	-0.989678
907.740234	-55.345352	16.196262	-11.414024
908.121582	-59.319923	6.767753	-0.493352
908.502869	-64.288490	-34.934814	-15.385617
908.884033	-71.245399	-19.540977	-15.881934
909.265198	-45.906876	-4.151440	-19.853830
909.646301	-29.517147	-6.137026	-43.690983
910.027344	-54.351784	0.812031	9.432827
910.408325	-13.628428	-7.626159	0.995600
910.789246	-55.842140	-15.569239	7.447428
911.170105	-53.854870	-4.151575	-7.938947
911.550903	-56.339069	-14.079770	-5.456933
911.931641	-46.403450	2.797384	3.477239
912.312317	-30.013718	-9.115463	-4.464210
912.692932	-32.993366	41.001198	-9.427990
913.073547	-48.390331	0.811896	-37.234116
913.453979	-9.656952	10.241489	-7.938947
913.834473	-39.946285	-16.065556	-31.274677
914.214783	-39.449631	-8.619069	0.003105
914.595154	-30.013718	-5.640657	-31.771128
914.975464	-61.804218	-10.108264	-7.442563
915.355652	-61.307377	-5.144292	26.799095
915.735840	-0.722145	-37.914577	-25.812244
916.115845	-48.390331	5.278811	-8.435336
916.495972	-44.913200	-10.108399	-8.931728
916.875854	-43.422985	-20.534090	2.980947
917.255859	-48.390465	2.797384	0.995735
917.635620	-37.463051	-12.094051	-7.938947
918.015503	-41.436409	-7.626294	-0.989678
918.395203	-41.933079	-16.562014	1.492044
918.774902	-27.530636	20.165867	-34.750999
919.154480	-29.020582	15.700212	-16.378389
919.534058	-18.593115	11.730307	-37.234253
919.913574	-28.523884	27.111700	2.484650
920.292969	-60.810406	37.033123	-41.704262
920.672363	-31.503454	-5.144157	-14.888901
921.051636	-40.939739	2.797384	-44.187675
921.430969	-26.537540	22.646566	-17.867916
921.810181	-51.371048	27.111700	-14.392458
922.189331	-87.646858	-13.583468	-34.254253
922.568420	-45.410172	-25.499496	-8.931728
922.947388	-61.307240	1.804648	3.477374
923.326416	-30.013582	15.700076	-7.442428
923.705261	-47.397152	1.308477	-9.428124
924.084106	-48.390331	-7.129777	4.966226
924.462891	-68.263802	4.782669	-6.946183
924.841675	-31.503454	0.315716	-7.939082
925.220337	-46.900162	10.737721	5.958908
925.598938	-45.906876	18.677128	-9.924661
925.977478	-32.000175	-24.009911	-11.910441
926.355957	-59.320057	-8.122544	-17.371313
926.734436	-41.436409	-17.555075	-14.392592
927.112732	-32.496635	9.745389	-6.946183
927.491089	-29.517014	-20.534090	0.002970
927.869324	-52.364563	-21.030584	-41.704128
928.247559	-65.282356	8.752770	-22.832962
928.625671	-23.061840	-1.173388	-39.717609
929.003723	-42.926437	1.308342	20.349377
929.381775	-32.000042	-15.072925	15.883599
929.759705	-34.979656	-17.555075	-4.960569
930.137634	-5.189109	-9.611861	-23.329475
930.515381	-37.959553	-36.424679	-25.812244
930.893250	-41.436272	-3.158874	-24.322651
931.270935	-7.174866	-40.397827	-13.399586
931.648560	-33.986568	0.812031	-12.903290
932.026123	-20.082697	-2.662530	-25.812380
932.403687	-44.416637	-44.371521	-29.288242
932.781250	-34.979790	-39.901306	3.477239
933.158630	-33.489830	17.188755	-4.960569
933.536011	-38.456329	-12.094051	-24.322651
933.913208	-18.096642	32.072552	-21.343445
934.290527	-26.041000	-25.996033	-46.671326
934.667664	-58.326286	-3.158874	-18.364254
935.044800	-30.510292	2.797249	-49.651821
935.421814	-53.358101	-11.101082	-47.168041
935.798889	-49.383930	15.700076	-0.493352
936.175842	-81.184990	3.789832	-7.939217
936.552673	-21.075684	38.025265	-23.329475
936.929504	-38.456329	-31.458347	-21.839947
937.306274	-39.449631	-78.157867	-30.778095
937.683044	-15.614334	-35.928051	0.499287
938.059570	-28.027327	-5.144292	-24.322651
938.436218	-50.377415	-42.881321	-23.329611
938.812744	-66.773125	-3.158874	-37.730888
939.189148	-49.383930	-28.975475	-37.233982
939.565613	-36.469654	8.752770	-34.750999
939.941956	-95.600563	-42.384777	-33.261044
940.318237	-46.403450	-17.555075	-4.960704
940.694458	-33.489830	-9.611861	-4.464345
941.070557	-59.816879	-35.928051	-18.861000
941.446655	-22.565193	-8.122680	7.447428
941.822693	-53.854870	-37.417938	-45.677906
942.198669	-64.288490	-5.640792	-57.103657
942.574646	-13.131861	-33.444855	-10.917476
942.950562	-74.723969	-22.520227	-19.357346
943.326294	-44.416637	-29.968477	-26.308784
943.702026	-32.993366	-25.499496	-4.960704
944.077698	-41.436409	-46.855183	-18.861000
944.453369	-46.403450	-42.384640	-21.343445
944.828918	-53.855007	-36.921173	-41.704262
945.204468	-31.007008	-35.928051	-34.254391
945.579834	-23.558357	-27.485668	-18.364388
945.955261	-54.848564	-13.583468	-22.833097
946.330627	-33.490101	-44.868217	-0.989678
946.705811	3.744752	-55.300362	-18.860865
947.081055	-24.054741	-27.982357	-24.819044
947.456177	-25.544462	-25.002829	-26.308784
947.831238	-29.020447	-10.108399	-13.399586
948.206238	-46.900162	3.293677	-34.254524
948.581238	-52.364563	-22.023722	-37.730888
948.956116	-48.390465	-55.300224	-15.385483
949.330933	-24.551537	-44.371387	-50.645309
949.705811	-56.835735	-62.255932	-36.737484
950.080505	-45.410172	-23.016603	-55.613266
950.455139	-49.880672	-23.016739	-54.122780
950.829773	-66.773125	-19.044632	-20.350590
951.204346	-30.510292	-10.108399	-41.704262
951.578735	-41.933079	-25.996033	-35.247616
951.953186	-62.797909	-26.989254	-19.357346
952.327515	-53.854870	-10.108399	-12.406729
952.701843	-66.276108	-13.087037	-63.065865
953.076172	-58.326286	-38.908001	-46.174480
953.450195	-53.854870	-49.835686	-35.744232
953.824341	-54.351784	-43.378139	-51.638947
954.198486	-54.351646	-16.562149	-53.129234
954.572449	-56.835735	-32.948257	-21.343309
954.946350	-53.855007	-24.506298	-14.889171
955.320251	-66.275970	-24.009775	-29.288242
955.694092	-36.469654	-27.982222	-10.421066
956.067871	-42.926437	-38.907867	-42.697613
956.441589	-34.979790	-11.101082	-43.194431
956.815125	-57.829475	-5.640657	-44.684505
957.188721	-30.510292	-45.364918	-35.247616
957.562256	-9.160554	-25.499496	-44.684505
957.935730	-23.061705	-44.371521	-14.889171
958.309021	-31.503590	-59.274792	-36.240856
958.682373	-56.338932	-37.914711	-11.413889
959.055664	-19.089594	-31.955069	-38.227528
959.428955	-48.390465	-3.655087	15.883599
959.802063	-57.829475	-47.351765	-22.336452
960.175110	-29.020447	-27.982222	-24.819313
960.548157	-39.449631	9.745389	-30.281248
960.921143	-23.061705	-45.861622	-35.744232
961.294128	-25.047930	-53.809879	-20.350319
961.666809	-38.456329	-15.569239	-33.261044
962.039612	-34.979790	-32.451527	-3.967855
962.412415	-43.423119	-14.079770	-40.214130
962.785095	-44.416637	-14.079770	-34.254253
963.157715	-65.282356	-12.590474	-6.449672
963.530151	-39.946285	-19.541113	-26.805462
963.902649	-63.294903	-39.901306	-46.671326
964.275146	-24.054741	-25.996033	-28.295118
964.647522	-38.952980	-39.901306	-52.632336
965.019714	-28.027462	-26.989119	-16.378389
965.392029	-46.900299	-25.996033	-34.750999
965.764160	-54.351784	-5.144292	-52.632469
966.136292	-42.429756	-29.472042	-27.301874
966.508423	-42.926437	-22.520227	-1.486008
966.880371	-43.423119	-25.002829	-7.938947
967.252319	-60.313576	-0.677061	-41.704262
967.624207	-18.593115	-47.848618	5.462367
967.996094	-32.496635	-9.611861	-45.677906
968.367737	-51.371048	-28.975340	-44.187809
968.739441	-39.449631	-12.094051	-27.301874
969.111084	-41.436409	-32.451660	-10.917340
969.482666	-32.000175	-34.438206	-44.684505
969.854248	-38.456467	-12.590474	-56.109924
970.225586	-34.979790	-29.472042	-44.187675
970.596985	-36.966419	11.730307	-34.254253
970.968323	-10.153220	-39.404514	-33.261044
971.339661	-33.489830	-22.520227	-35.247616
971.710754	-42.926437	-27.982222	-3.967720
972.081909	-13.628428	-40.894627	-21.343309
972.453064	-45.410034	-19.540977	-20.350590
972.824097	-26.041134	-75.673012	-41.207592
973.194946	-24.054741	-33.444855	-12.406729
973.565918	-53.358101	-12.093917	6.455176
973.936768	-55.345352	-38.411221	-35.744232
974.307556	-26.537540	-35.431431	-10.421066
974.678284	-38.456467	-51.325928	-12.903155
975.048828	-50.874294	-4.151440	-35.247616
975.419495	-32.496635	0.315716	-15.882069
975.790039	-2.707480	-76.666801	-10.917340
976.160522	-22.068686	-19.044632	-47.168041
976.530884	-34.979656	-37.914577	-12.406729
976.901245	-11.146173	-23.513121	-24.322651
977.271606	-33.986568	-17.555075	-26.805326
977.641846	-24.551266	-40.894627	-40.214130
978.012024	-41.933079	-43.874825	-34.750999
978.382019	-45.906742	-18.548153	-27.798561
978.752136	-39.946285	-29.968611	-0.989678
979.122131	-44.913334	-23.513121	-30.281519
979.492065	-17.103571	1.804648	-36.737617
979.861877	-80.687981	-48.345478	-25.315710
980.231689	-21.572317	-36.921440	5.462502
980.601440	-25.544462	-41.887966	-53.129372
980.971191	-44.416500	-37.418076	-24.819178
981.340820	-40.443077	-1.669720	-57.600460
981.710266	-18.593115	-34.438206	-58.097404
982.079773	-50.874294	-35.431431	-16.874985
982.449280	-25.544462	-21.030584	-38.227528
982.818604	-27.530771	-46.358463	-38.227528
983.187866	-65.282356	-18.548018	4.469811
983.557129	-45.906742	-14.576345	-29.288242
983.926331	-21.572317	-15.569239	-33.261044
984.295471	-55.345352	-54.803440	-37.730888
984.664612	-10.649762	-30.961765	-59.587994
985.033569	-29.020582	-32.948257	-14.889035
985.402527	-59.816608	-38.907867	-22.336586
985.771362	-47.893604	-39.901306	-28.791677
986.140259	-45.906876	-31.458347	-38.724037
986.508911	-42.926437	-36.921173	-13.399720
986.877625	-11.146173	-55.797012	-19.357346
987.246277	-28.523884	-17.555075	-16.378525
987.614929	-4.692883	-25.002829	-63.562721
987.983459	-29.020447	-30.465052	-44.187675
988.351807	-35.476543	-49.338676	-28.791677
988.720215	-13.628428	-60.268581	-51.142059
989.088623	-33.986568	-45.861755	3.477104
989.456909	-19.089594	-30.465185	-31.274677
989.825012	-56.339069	-35.431297	-4.960569
990.193115	-10.153356	-36.424679	-33.757782
990.561279	-4.693018	-17.058744	-14.392592
990.929321	-15.614334	-24.506298	-45.677906
991.297302	-36.469654	-15.569239	-35.247478
991.665100	-48.887196	5.278811	-13.399586
992.033020	-51.371048	-26.989119	-35.744370
992.400818	-30.510292	-28.975611	-26.308784
992.768494	-61.804085	-19.541113	-24.322651
993.136047	-29.020447	-62.255795	-12.903155
993.503723	-35.973164	-19.044632	-28.295118
993.871277	-48.390465	-51.822681	-43.194294
994.238770	-43.919945	-28.975340	-5.953435
994.606140	-42.429756	-52.319439	-33.757648
994.973450	-35.973030	-39.404652	-49.651955
995.340759	-41.436409	-0.676926	9.928931
995.708008	-33.489964	-40.397964	-9.924661
996.075195	-26.537676	-21.030584	-7.938947
996.442200	-20.579054	-34.438068	-23.825994
996.809265	-57.829475	-25.499361	-49.155083
997.176270	-36.966282	-31.954935	-36.737484
997.543152	-10.153220	-13.086902	-10.917340
997.910095	-83.173058	-43.378139	-47.664761
998.276733	-41.436272	7.264014	-37.234253
998.643494	6.722675	17.684793	-16.874985
999.010193	-29.517014	-21.527082	-28.791677
999.376831	-44.416637	-21.030584	-25.812244
999.743286	-64.288620	-2.165920	-28.791677
1000.109802	-44.416637	-33.941597	-32.764584
1000.476257	-34.979790	-43.874825	-5.456933
1000.842651	-15.614334	-13.086902	-24.819178
1001.208923	-51.371048	-29.968477	-19.357346
1001.575134	-65.282356	-12.094051	-43.194294
1001.941284	-57.332672	-36.921440	-31.771128
1002.307434	-33.489964	-19.541113	-13.896155
1002.673523	-40.939739	-50.829037	-14.889035
1003.039429	-39.946285	-39.404652	-53.626007
1003.405334	-41.436272	-57.784214	-37.234253
1003.771179	-36.966419	-41.391293	-56.606857
1004.137024	-36.966553	-17.058609	-16.874985
1004.502808	-14.124999	-19.541113	-35.247616
1004.868408	-53.854870	-32.451660	-35.744232
1005.234009	-26.537540	-40.397964	-37.233982
1005.599609	-30.013718	-29.968477	-23.329475
1005.965149	-29.020582	4.782534	-50.645309
1006.330444	-6.678353	-19.540977	-18.364388
1006.695862	-37.959553	-28.975340	-65.053314
1007.061218	-49.384068	-36.424679	-7.938947
1007.426453	-29.020447	13.218950	-3.471504
1007.791626	-20.579054	-26.492573	-21.343445
1008.156677	-16.607244	-28.478779	-21.343445
1008.521729	-33.489830	-30.465321	-23.825994
1008.886780	-23.061840	-37.417938	-17.371449
1009.251709	-17.600172	-2.662395	-43.691120
1009.616577	-9.160554	-35.431297	-43.194294
1009.981384	-38.952980	-17.555075	-31.771261
1010.346130	-30.510159	-30.465052	-34.254524
1010.710754	-42.429756	-69.709381	-24.322651
1011.075439	-50.377548	-2.662395	-9.428260
1011.439941	-17.103842	-58.281162	-38.227528
1011.804443	-43.423119	-31.458347	-21.343445
1012.168884	-33.489830	1.308477	-24.819178
1012.533325	-9.656952	-12.093917	-37.730888
1012.897522	-6.182114	-14.576210	-29.288242
1013.261780	-19.089594	-18.051544	-1.982342
1013.626038	-35.476406	-31.458347	-0.989678
1013.990112	-34.483040	-31.458347	-46.174614
1014.354187	-55.842140	-0.677061	-23.825994
1014.718140	-33.986568	3.293677	-39.220821
1015.082153	-24.551266	-57.287544	-53.129234
1015.446045	-42.926437	-7.129912	-38.724037
1015.809937	-25.048065	-50.332428	-10.917476
1016.173523	-49.880672	-39.901306	-31.771128
1016.537170	-35.973030	-66.727997	-19.357346
1016.900879	-48.390465	-35.431297	-27.301874
1017.264404	-57.332535	-57.784214	-10.917476
1017.627991	-39.449631	-6.633399	-19.357346
1017.991333	-70.748482	-20.037735	-45.181202
1018.354675	-54.848564	-40.397964	-53.129234
1018.718018	-1.218337	-37.914711	0.995735
1019.081299	-21.572182	-56.790607	-3.471504
1019.444397	-60.313576	-38.411221	-13.399720
1019.807495	-43.423256	-37.418076	-6.946183
1020.170593	-31.006737	-22.023586	-37.234253
1020.533691	-29.020447	-32.451660	-33.261044
1020.896606	-46.403450	-22.023722	-34.254253
1021.259460	-25.544462	-63.746490	-57.600460
1021.622253	-41.436409	-21.030584	-21.839947
1021.985046	-56.835735	-9.115328	-29.784811
1022.347778	-50.874294	-24.009911	-16.874849
1022.710327	-84.664284	-35.431431	-29.784946
1023.072876	-52.861462	-5.640657	-35.744232
1023.435364	-36.966419	-60.268581	-13.399856
1023.797852	-44.416637	-68.218529	-12.903155
1024.160278	-41.436409	-27.485668	-61.078350
1024.522461	-60.313576	-27.982357	-54.619560
1024.884766	-25.544462	-17.058744	-39.220955
1025.246948	-76.214981	-55.797012	-41.704128
1025.609131	-32.000175	-56.790607	-24.819178
1025.971069	-43.423256	-39.901306	-43.194431
1026.333130	-28.027327	-57.784348	-35.247616
1026.694946	-7.174866	-16.562283	-39.220821
1027.056885	-30.510292	-20.534225	-7.938947
1027.418823	-23.061840	-21.030720	-43.194294
1027.780396	-53.854870	13.219086	-43.691120
1028.142090	-3.203690	-23.016603	-18.860865
1028.503784	-57.829475	-44.868351	-30.281519
1028.865479	-37.463051	-72.193977	-8.931728
1029.226807	-39.946285	-33.941460	-38.227528
1029.588135	-37.959553	-6.633399	-23.329611
1029.949707	-64.785484	-55.300224	-34.254253
1030.310913	-32.993229	-58.281162	-18.364523
1030.672241	-77.706032	-42.881454	-46.174614
1031.033325	-35.476406	-50.332428	-51.638947
1031.394531	-24.054876	-44.371387	-32.267853
1031.755493	-53.854870	-44.868351	-31.274677
1032.116577	-30.013582	-18.548018	-19.357346
1032.477417	-55.842140	-23.016739	-31.771397
1032.838257	-84.664284	-52.816338	-37.234116
1033.199097	-56.339069	-6.137161	-41.207592
1033.559937	-19.089594	-36.921173	-19.853830
1033.920654	-60.313576	-49.338810	-33.757648
1034.281128	-54.848564	-28.975475	-29.288378
1034.641724	-32.496635	-19.541113	-34.750999
1035.002197	-37.463051	-32.451527	-35.744232
1035.362671	-37.959553	15.700212	-45.181202
1035.722900	6.722675	-33.444721	-2.478815
1036.083252	-10.649762	-16.562149	-33.757648
1036.443481	-56.338932	-60.765411	-58.594082
1036.803711	-32.496635	-40.894627	-29.288378
1037.163940	-12.139009	-9.611861	-31.771261
1037.523804	-92.617844	-40.894627	-34.254253
1037.883789	-59.816879	-27.982222	-35.744370
1038.243774	-49.880672	-40.894627	-20.846947
1038.603638	-39.946285	-17.555075	-41.207592
1038.963257	-34.483177	-30.465052	-51.142193
1039.323120	-45.410034	-24.009640	-17.867916
1039.682861	-61.804218	7.760270	-30.778095
>>>>>End Processed Spectral Data<<<<<
