Jaz Data File
++++++++++++++++++++++++++++++++++++
Date: Tue Dec 02 20:31:02 2014
User: jaz
Dark Spectrum Present: Yes
Reference Spectrum Present: Yes
Processed Spectrum Present: No
Spectrometers: JAZA2310
Integration Time (usec): 30800 (JAZA2310)
Spectra Averaged: 5 (JAZA2310)
Boxcar Smoothing: 0 (JAZA2310)
Correct for Electrical Dark: Yes (JAZA2310)
Strobe/Lamp Enabled: No (JAZA2310)
Correct for Detector Non-linearity: Yes (JAZA2310)
Correct for Stray Light: No (JAZA2310)
Number of Pixels in Processed Spectrum: 2048
>>>>>Begin Processed Spectral Data<<<<<
W	D	R	S
188.301102	0.000000	0.000000	0.000000
188.764923	0.000000	0.000000	0.000000
189.228699	-51.754860	-26.221819	-33.765347
189.692459	-31.887136	-65.960037	-83.945694
190.156158	-37.846775	-32.180878	-20.854509
190.619812	-15.004877	-18.773911	-22.840523
191.083435	6.835370	0.089896	-15.889495
191.547043	-27.418011	22.917097	-27.309301
192.010590	-57.716660	5.549285	-3.478929
192.474091	31.148029	12.993450	15.379990
192.937561	23.210428	49.207237	12.402502
193.401001	-15.998048	5.053145	-5.464627
193.864410	13.782901	18.947945	9.425135
194.327759	13.286965	13.985727	27.287634
194.791077	40.572800	-0.902615	9.921373
195.254349	26.187103	-19.767010	63.492992
195.717575	48.508354	18.451649	-2.486239
196.180786	38.092983	17.459311	-0.500776
196.643951	4.354008	22.917097	6.447618
197.107071	33.628677	12.497237	1.980790
197.570145	-3.587324	14.481928	6.943746
198.033203	15.767817	-7.851874	-28.799105
198.496216	0.879790	1.082796	1.980790
198.959167	-7.061874	-44.100681	39.193295
199.422089	0.879790	-14.305375	-6.953743
199.884979	-31.887136	-12.319784	-31.282240
200.347855	-21.955801	-22.249357	9.921373
200.810654	5.346700	13.985727	15.379990
201.273422	6.339106	-11.823362	-4.471769
201.736160	1.376100	-23.242516	-22.344149
202.198853	4.850153	-24.235554	-36.745049
202.661514	-22.452309	-35.657120	1.980790
203.124130	-22.452578	-14.801952	-33.268608
203.586700	-30.397390	-25.228746	15.379990
204.049240	-33.377060	-24.235689	-33.268608
204.511734	-44.303711	-8.348262	-67.545418
204.974197	-2.594633	-34.167141	-30.288946
205.436615	-24.935040	-13.808937	-23.833555
205.899002	-55.729053	-23.242516	-17.875477
206.361343	-28.907547	-26.221819	-19.365042
206.823654	-49.767731	-23.739033	-29.792374
207.285919	-45.793941	-22.249357	-25.819807
207.748123	-48.774395	-0.902615	-26.812754
208.210327	-41.820293	-1.895277	-5.960725
208.672485	-53.742058	-44.597378	-27.309572
209.134583	-50.264744	-4.873635	-57.111359
209.596649	-56.226120	-24.235554	-16.882410
210.058670	-51.754860	-30.690989	-45.188766
210.520676	-26.424784	-60.494228	-35.255043
210.982635	-11.033444	-42.610489	-37.241680
211.444534	-72.623207	-8.844788	-34.261951
211.906403	-36.853638	-48.571079	-33.765347
212.368240	-34.370132	-15.298399	-26.316481
212.830048	11.797918	-32.180878	-23.833555
213.291779	-50.761223	-6.362601	-9.435685
213.753494	-50.264473	-4.873635	-30.785522
214.215179	-40.330158	-46.584332	-26.316481
214.676819	-28.907547	-13.809207	-20.358015
215.138412	-51.754860	-18.277435	-40.221695
215.599960	-34.370403	-48.074352	-16.882410
216.061493	-7.558525	-25.725281	-35.255043
216.522949	-26.921328	-59.003887	-7.449988
216.984406	-56.722782	-33.670536	-45.685337
217.445801	-41.323353	-20.263227	-2.486239
217.907166	-17.487295	5.053145	-45.188766
218.368484	-23.941988	-33.174068	-28.799105
218.829773	-25.928244	13.985727	-52.143269
219.291031	-13.019128	0.090166	-45.685471
219.752228	-62.188236	-48.571350	-6.953743
220.213379	-40.330158	-13.809207	-26.812754
220.674500	-21.955801	-38.637188	-49.659252
221.135574	-2.594498	-53.539001	-39.725037
221.596634	-15.998048	-46.087620	-27.309572
222.057648	-38.343414	-2.888092	-41.214886
222.518600	-16.494370	-32.180878	-26.813025
222.979553	-39.336845	-43.603855	-47.672462
223.440430	-34.867016	-39.630489	-57.608025
223.901276	-15.501595	-29.697706	-4.968129
224.362076	-22.452309	-40.127144	-48.665916
224.822845	-49.767731	1.578969	-37.241680
225.283569	-36.357010	-21.256351	-58.601650
225.744278	-43.310192	-16.291439	-35.255043
226.204910	-9.047829	-47.577629	-28.302546
226.665512	-47.780937	-25.725281	-61.085915
227.126114	-32.880459	-36.153740	-26.316345
227.586639	-30.893969	-4.377277	-48.169186
228.047119	-2.098428	-4.377277	-18.371950
228.507568	-32.383865	-51.055058	-20.358015
228.967972	-67.157043	8.031003	-17.875341
229.428345	-20.466442	-16.291304	-23.337038
229.888687	-55.729324	-40.623669	-20.854509
230.348984	-21.955801	-18.277435	-15.393179
230.809219	-27.914293	-37.147133	-37.241951
231.269440	-38.840195	4.060583	-18.371950
231.729614	-21.955801	-37.147133	-10.428626
232.189758	-34.866745	-41.617275	-26.813025
232.649841	-35.363632	-10.333989	-37.241680
233.109894	-39.833500	-31.684155	-43.698547
233.569901	-42.316967	-23.738762	-57.111359
234.029892	-54.238834	-22.745867	-28.302546
234.489822	-25.928244	-40.127144	-67.545555
234.949707	-50.264473	-7.851874	-23.337038
235.409561	-23.941988	-13.312773	-11.917868
235.869385	-39.336845	5.053145	5.454809
236.329163	-20.466171	-26.221819	-45.188766
236.788895	-27.914564	-30.194412	-37.241680
237.248581	-66.163139	-31.187569	-22.344149
237.708237	-39.336845	-31.684288	-21.350872
238.167847	-45.297375	-34.664021	-31.778826
238.627441	-40.826958	-57.016510	-29.295940
239.086960	-28.411121	-25.228746	-35.751930
239.546463	-4.083810	-38.140411	0.491728
240.005920	-41.323353	-29.697840	-8.939154
240.465332	-25.431707	-32.180878	-35.751663
240.924698	9.316763	-36.650501	-28.799105
241.384033	-50.761494	-2.391750	-47.672462
241.843338	-4.083675	1.082796	-35.255043
242.302597	-63.181934	-15.298399	-22.840523
242.761810	-53.742058	-1.895412	-35.255043
243.220993	-73.120140	-27.711594	-42.208366
243.680115	-73.617218	-33.670536	-43.698547
244.139221	-52.748520	-51.055058	-32.275417
244.598282	-42.813782	-75.898720	-66.054626
245.057297	-63.678658	-55.029202	-42.705044
245.516266	-39.336845	-31.684288	-27.806124
245.975189	-44.303711	-45.094212	-27.806124
246.434082	-2.594498	-34.167141	-30.288946
246.892944	-34.370132	-29.697706	-21.350872
247.351761	-3.587324	-42.113811	-30.288946
247.810516	-19.473331	0.089896	-38.235092
248.269272	-11.529859	-28.704575	-28.799376
248.727951	-41.820293	1.082525	-43.201996
249.186600	-58.710148	-9.837584	-3.975415
249.645218	-28.907547	5.549555	-36.248554
250.103790	-28.907547	1.578969	-21.847372
250.562317	-1.602093	8.527118	-11.917868
251.020813	2.368707	-54.035774	-42.208633
251.479279	-23.445469	-61.984875	-44.195240
251.937668	-48.774395	-16.291439	19.845533
252.396057	-44.800404	-29.201138	-27.309572
252.854385	-45.297104	-8.348262	-21.351141
253.312683	-45.793808	-37.147133	-16.385950
253.770920	-38.343414	-33.174068	-14.399883
254.229126	-58.710148	-50.558304	-32.772011
254.687302	-26.921463	-11.823362	-3.975280
255.145432	-51.258106	-18.277435	-37.241680
255.603500	-29.404112	-8.844788	-14.400019
256.061584	-47.780804	-36.650501	-37.738316
256.519592	-21.955801	-23.242516	-22.344149
256.977570	-24.438513	-50.558304	-6.953743
257.435455	-20.466442	8.527118	-56.117764
257.893372	-12.522700	-54.532417	-23.337038
258.351196	5.842972	-10.830398	-42.705044
258.808990	-33.377060	-40.126873	2.973388
259.266754	-39.833500	-42.113811	-35.255043
259.724487	-49.271130	-15.298399	-13.407281
260.182190	-36.356739	-34.167141	-36.745049
260.639832	-50.264744	-45.094074	-37.738316
261.097443	-35.363632	-34.167141	-34.758564
261.554993	-40.330158	-26.718225	-59.595425
262.012512	-29.900682	-46.087620	-44.691933
262.469971	-19.969816	-15.298399	-26.316345
262.927429	-48.774124	-50.061424	-4.968129
263.384827	-26.424784	-24.732216	-37.738316
263.842194	-22.948820	-30.194277	-54.130344
264.299530	-63.181934	-26.221819	-38.731602
264.756805	-23.445469	-19.766739	-14.400019
265.214050	-47.780804	-29.201408	-7.946372
265.671234	-23.445469	-13.809207	-28.799376
266.128387	-22.949089	-48.074352	-44.691933
266.585510	-21.459435	0.089896	-36.248554
267.042572	-31.390551	-25.725010	-32.275143
267.499573	-68.150826	-8.844788	-54.627262
267.956604	-9.544091	-71.923149	-15.393179
268.413574	-32.880459	-31.187569	-33.268608
268.870483	-36.357010	-33.670536	-54.626991
269.327362	-6.565767	5.549555	-48.168915
269.784180	-27.417742	-21.752853	-18.868425
270.240936	-51.754860	-44.597378	-26.812754
270.697693	-37.847046	-29.697706	-19.364906
271.154419	-59.703789	-33.670536	-15.393179
271.611053	-21.955801	-18.277435	-15.393179
272.067688	-21.459435	-48.571079	-5.464492
272.524292	-42.316967	-29.201138	-44.691933
272.980835	-60.697578	-55.526257	-21.847643
273.437347	-51.258106	-26.718225	-2.486239
273.893799	-36.356739	-13.312503	-13.903851
274.350250	-27.418011	-41.120335	-11.917868
274.806610	-24.935040	-16.291304	-48.169186
275.262939	-25.928244	-22.249357	-35.255314
275.719238	-9.047829	-1.895412	-10.925035
276.175507	-39.336845	-25.228746	-43.698547
276.631714	-8.551435	-29.697706	-34.261951
277.087891	-41.323353	-32.180878	-20.854509
277.544067	-39.336845	-65.463158	-26.316345
278.000122	-28.907818	-56.022915	-50.652874
278.456177	11.797918	-44.100681	-28.302814
278.912201	-47.780937	-17.780964	-6.953743
279.368164	-4.083810	-48.571350	-26.813025
279.824097	-30.397390	-79.874832	6.447348
280.279968	-46.290653	-29.697706	-25.819807
280.735840	-47.284084	-16.787897	-32.275417
281.191620	-25.431707	-20.759720	-37.241680
281.647400	-63.181934	-22.746002	-38.731735
282.103149	-38.343414	-17.284361	-25.819807
282.558838	-52.251888	-40.623669	-63.073296
283.014465	-31.390821	-8.348532	-41.711826
283.470062	-46.787365	-37.146999	-52.143135
283.925629	-14.011859	-36.650501	-66.551643
284.381134	-33.377060	-43.603992	-28.302546
284.836639	-11.033309	-18.277435	-50.652740
285.292053	-47.780804	4.556866	2.477092
285.747467	-30.397390	-7.851874	-22.840523
286.202820	-38.343685	-8.348262	-35.255043
286.658142	-50.761494	7.038220	-28.799376
287.113434	-34.370403	6.045826	-21.350872
287.568634	-41.820293	-35.657120	-32.772011
288.023804	-44.303711	-33.670536	-11.917868
288.478973	-49.767731	-5.369998	-33.268608
288.934113	-6.069259	-30.690989	-20.358015
289.389130	-19.473331	-29.697706	-22.343878
289.844208	-29.900951	-19.270390	-19.861526
290.299164	-35.363632	-36.650368	-51.646648
290.754089	-65.169388	-46.087349	-10.925035
291.208984	-30.397390	-14.801952	-18.371950
291.663879	-48.774395	-31.684155	-41.711826
292.118683	-23.445333	-35.160500	3.469681
292.573456	-31.390551	-55.029472	-35.751663
293.028198	-46.787098	-59.003887	-31.778826
293.482849	-14.508569	-41.120335	-24.826740
293.937561	-26.424784	-29.201138	-41.215157
294.392151	-17.487295	-22.249357	-40.221828
294.846741	9.813003	5.549555	-23.337038
295.301239	-37.350140	-27.711594	-45.188633
295.755737	-46.787365	-9.341185	-21.350872
296.210175	-73.120140	-35.160500	-27.806124
296.664581	-49.271130	-35.160500	-8.939288
297.118958	-34.370403	-30.690989	-45.685471
297.573242	-13.019128	-35.160500	-67.048531
298.027557	-27.914564	-27.711594	-30.288946
298.481812	-57.716660	-31.684155	-29.792374
298.935974	-42.813782	-22.745867	-30.785522
299.390137	-48.277664	-29.201138	-26.316345
299.844238	-48.277393	-26.718225	-12.910581
300.298340	0.383610	-60.991333	-8.939288
300.752350	-30.893969	-8.348262	-68.539078
301.206360	-44.303711	-35.160366	-25.819807
301.660278	-28.907547	-31.684288	-56.117493
302.114197	-11.033444	-31.187704	-37.241680
302.568054	-1.601823	-15.794984	-65.060883
303.021881	-42.813511	-40.623940	-40.221695
303.475677	-38.343414	-33.174068	-44.195240
303.929413	-22.949089	-17.780828	-56.614288
304.383118	-35.860115	-28.704575	-23.337038
304.836761	-29.404383	-51.055058	-21.847372
305.290375	-55.232265	-37.146999	-52.143269
305.743958	18.248837	3.564296	-34.758564
306.197510	-30.397390	-10.830398	-5.464492
306.650970	-32.383728	-32.677471	-15.393179
307.104431	-27.417742	-12.816344	-33.765347
307.557800	-28.411121	-26.221819	-42.208366
308.011169	-15.004877	-2.391615	-9.932086
308.464508	-38.343685	-12.319784	-26.812754
308.917755	-32.383865	-37.147133	-38.234959
309.371063	-62.188236	-30.690989	-38.235092
309.824219	-12.026278	-28.704575	-17.378874
310.277374	-10.040493	-37.147133	-49.162514
310.730499	-68.150826	-25.725281	5.951350
311.183563	-42.316967	-52.545464	-36.745049
311.636597	-12.522700	-45.094212	-37.738316
312.089569	-37.350140	-40.623940	-39.725037
312.542511	-22.949089	-29.201138	-6.457366
312.995422	-19.969816	-24.235554	-5.464492
313.448273	-35.860115	-50.558304	-29.792374
313.901093	-10.536899	-36.650501	-35.255043
314.353882	-33.377193	-33.670536	-12.910851
314.806580	-30.893969	-60.991333	-42.705315
315.259308	-19.473331	-13.808937	4.462388
315.711975	-55.729053	-16.787628	-32.772011
316.164581	-27.914564	-24.235554	-29.792374
316.617126	-28.907547	-29.201138	-40.221695
317.069672	-36.356739	-10.830398	-19.861526
317.522156	-10.536899	-39.133835	-39.725037
317.974579	-48.277664	-57.016510	-28.302546
318.427002	-12.522700	-28.704575	-15.889495
318.879333	-16.990829	-7.851874	-5.960995
319.331665	-38.840061	-19.767010	-56.614559
319.783936	-38.840061	-16.787897	-24.330214
320.236176	-19.473331	-22.746002	-57.111359
320.688354	-23.941988	2.075273	-28.799376
321.140503	-85.545631	-12.319784	1.980790
321.592651	-28.411121	-8.348262	-23.833555
322.044647	-20.962936	12.993450	-30.785522
322.496704	-45.297104	-23.242516	-55.620831
322.948639	-27.417742	-21.256351	8.432511
323.400604	-17.983765	-54.532417	-3.975280
323.852509	-1.601823	-3.384438	-11.421450
324.304352	-59.703789	-15.298399	-24.330214
324.756165	-39.336845	2.571843	-7.946372
325.207916	-13.019128	-19.766739	-37.738316
325.659668	-59.703789	-2.888361	-21.847372
326.111328	-32.383865	-75.898720	-30.288946
326.562988	-51.258106	-30.690989	-37.241680
327.014557	-36.853638	-5.369998	-25.819807
327.466156	-19.969952	-27.214773	-31.282104
327.917664	-39.336845	-33.670536	-23.833555
328.369110	-33.873798	-42.610489	-41.215157
328.820557	-38.840195	-22.746002	-48.169186
329.271942	8.820520	-26.221819	-21.847372
329.723297	-20.466171	-8.844653	-46.182182
330.174561	-19.969816	-47.081047	-8.939288
330.625854	-41.820023	16.963135	-33.268608
331.077026	-22.949089	-38.637054	-51.149624
331.528229	16.760183	12.001021	-31.778826
331.979370	-39.336845	-38.140411	-36.248283
332.430450	-22.948820	-29.697706	-3.975415
332.881500	-16.990829	-40.127144	-26.812754
333.332489	-29.900951	-20.263227	-16.882410
333.783478	-31.887272	-8.348262	-8.442760
334.234406	-17.487564	-24.235554	-14.400289
334.685303	-59.206963	6.045826	-4.968129
335.136078	-63.678658	6.542228	-35.751930
335.586914	-39.336845	-22.249628	-34.261951
336.037659	-33.873661	-4.377277	-20.854509
336.488342	-16.991100	-26.221819	-32.275417
336.939026	-35.860115	-40.127144	-4.471769
337.389648	-14.508569	21.428831	-7.450258
337.840240	-10.040763	-2.391615	-14.400019
338.290771	-54.238834	-14.305510	1.980790
338.741272	-49.767731	-30.194412	0.491728
339.191681	-57.716660	-7.851874	-31.282104
339.642120	-41.820293	-16.291439	-2.486239
340.092468	-53.742058	31.847122	-40.718491
340.542816	-34.866745	-5.866230	-26.813025
340.993103	-20.962936	-22.745867	-17.875477
341.443329	-16.494370	7.534479	-8.443030
341.893555	-31.390551	-2.391750	18.853355
342.343689	-64.175789	25.893921	-1.493702
342.793793	-6.069259	23.413221	13.891264
343.243866	-37.350140	43.751598	2.477092
343.693878	-37.846775	20.932419	-9.932356
344.143890	-61.691391	46.231583	-0.004589
344.593842	-10.536899	51.190704	30.264372
345.043732	-38.343414	16.963135	19.349649
345.493591	-44.303711	22.917097	26.295713
345.943359	-33.873798	34.823364	5.455079
346.393158	-30.893969	62.595520	56.055153
346.842896	-24.935175	75.485527	35.224960
347.292542	-29.404383	83.911797	47.128761
347.742218	-15.501595	41.767887	24.807262
348.191803	-17.983898	49.703144	24.807262
348.641357	-30.397390	12.001021	35.224960
349.090881	-24.935175	14.482198	20.341955
349.540314	-37.350140	62.595520	18.853355
349.989777	-17.487295	52.678493	19.349649
350.439148	-47.284084	59.124844	18.853355
350.888489	-39.833500	40.775803	-11.421450
351.337799	-18.976849	55.157970	-11.421450
351.787048	-58.710148	79.450912	29.768305
352.236267	-25.431707	41.767616	43.657185
352.685425	-35.860115	65.570496	40.681110
353.134552	-19.969816	115.624481	49.112564
353.583649	-57.716660	132.960388	64.484291
354.032684	-33.377060	153.756485	66.467659
354.481659	-42.813511	137.912491	67.954796
354.930634	-40.330158	181.474213	80.843643
355.379517	-27.418011	202.748596	92.242683
355.828430	-36.357010	254.172791	179.400421
356.277222	-3.090976	369.722687	205.622269
356.726013	-75.108070	541.179199	309.905151
357.174774	-12.026278	663.584473	393.304810
357.623444	-1.601823	808.314636	426.831451
358.072113	12.790350	785.766724	458.863068
358.520721	-33.377060	710.225769	428.803253
358.969299	-47.284084	624.773254	401.195251
359.417786	-24.935175	552.987183	325.211456
359.866302	-29.900951	456.000671	275.328339
360.314697	-19.969816	443.189514	286.691101
360.763123	-60.200615	524.939758	313.361511
361.211456	-43.807152	720.531982	408.098358
361.659760	-41.820293	760.759033	457.384705
362.108032	-18.976849	760.269043	444.573853
362.556244	-15.501326	766.643982	500.233673
363.004456	-11.033309	886.195679	633.033447
363.452576	-39.833500	1125.668091	710.132385
363.900696	-14.508569	1579.512207	1145.576416
364.348663	-31.887272	2480.585205	1716.073364
364.796722	-15.004877	3696.967773	2297.955322
365.244690	-15.501326	4378.685059	2510.721191
365.692596	-36.853367	4260.883301	2448.336426
366.140472	-36.853638	3471.601807	2097.689697
366.588287	-52.251888	2543.427734	1632.267212
367.036102	-39.336712	1787.308594	1162.646851
367.483826	-50.264473	1176.393188	832.721741
367.931549	-54.735619	789.198730	590.763123
368.379181	-45.793808	670.459961	496.786835
368.826843	-5.076527	660.637390	373.082123
369.274384	-40.330158	660.637390	386.893707
369.721924	-49.767731	616.418823	404.646881
370.169403	-5.572891	604.130676	385.907288
370.616821	-52.251621	612.486694	385.413971
371.064270	-71.132561	621.825012	383.440826
371.511566	-49.271130	697.954834	416.972900
371.958923	-14.012130	750.459473	466.252197
372.406158	-18.480371	739.667358	486.446106
372.853424	-25.928244	741.139221	454.921265
373.300568	-27.418011	672.915344	439.646118
373.747711	-38.343414	684.700073	463.296570
374.194794	-14.508569	719.060059	470.685486
374.641846	-51.258106	676.843689	455.906860
375.088898	-13.515425	668.986633	461.326111
375.535828	-55.729324	742.120300	495.309631
375.982758	-30.893969	755.854736	463.296326
376.429596	-9.047829	769.096252	519.432373
376.876465	-61.691257	780.373535	479.058746
377.323242	13.782901	791.649536	488.908386
377.769989	-48.774395	774.980225	506.633484
378.216675	-35.860115	800.473022	510.571899
378.663330	-19.473331	847.510986	548.957703
379.109985	-41.820293	914.094238	599.121094
379.556519	-67.156906	960.077881	653.667358
380.003052	-37.350140	1022.157898	640.403503
380.449524	-35.860115	979.636719	632.542236
380.895996	-26.424784	975.236267	713.567871
381.342377	-42.316967	974.747253	684.115234
381.788727	-44.800404	1009.452942	687.061218
382.235046	-42.316696	1033.394653	741.045837
382.681274	-38.343414	1246.570190	860.641663
383.127533	-25.431707	1316.194458	915.468872
383.573669	-15.005148	1434.846802	948.735901
384.019836	-20.466171	1402.770386	974.165405
384.465912	-17.487564	1367.276733	925.254883
384.911957	-23.941988	1260.207764	828.802185
385.357971	-23.445469	1143.718750	808.711487
385.803925	-70.138588	1129.083374	788.124451
386.249847	-19.969952	1224.646851	809.201477
386.695679	-21.459435	1296.725586	901.276489
387.141541	-16.494370	1473.709229	957.050659
387.587311	-29.900951	1602.303589	1083.114746
388.033051	-24.438513	1604.242798	1057.724121
388.478729	-55.729324	1482.450806	1050.398438
388.924408	-13.019128	1490.705688	1033.301880
389.369995	-45.297104	1582.906616	1119.719849
389.815552	-18.480236	1951.137939	1441.070679
390.261078	-17.487295	3074.215576	2252.743408
390.706543	-22.948820	4920.860840	3387.881592
391.152008	-21.459435	6192.636719	4084.325684
391.597351	-23.445469	6354.379883	4108.405762
392.042725	-15.998048	5348.474121	3542.732910
392.487976	-24.935040	4402.230469	3073.171387
392.933289	-15.005148	3694.123779	2775.145508
393.378479	-17.983765	3329.960449	2455.056885
393.823639	-59.703789	3173.830566	2122.266602
394.268768	-40.826820	3021.746826	2051.890869
394.713837	-21.955801	2781.934326	1895.505859
395.158905	-5.076527	2537.672607	1806.564087
395.603851	-25.431707	2561.169678	1787.700195
396.048798	-22.948820	2583.221680	1807.047729
396.493683	-39.336845	2707.764893	1837.995239
396.938568	-38.840195	2486.823730	1725.272461
397.383392	-35.860115	2184.010010	1549.828369
397.828156	-19.473331	2031.244141	1393.441162
398.272888	-52.251888	1795.048462	1341.403809
398.717560	-49.271130	1940.999023	1420.661621
399.162201	-56.723049	2404.732910	1711.231812
399.606781	-16.990829	2868.947510	1934.629150
400.051361	-59.703922	3025.086426	2081.782959
400.495819	-38.343414	2890.449463	2036.458130
400.940308	-20.962936	3111.404053	2267.175293
401.384705	-44.800404	4034.821533	3035.014404
401.829102	-27.417742	6297.399902	4466.159180
402.273438	-27.418011	8588.899414	5661.329102
402.717682	-28.411121	9103.275391	6055.200684
403.161926	-18.480371	8320.948242	5540.166992
403.606110	-55.232265	7365.070801	5268.500977
404.050293	-12.522700	8002.633301	5930.713867
404.494385	-33.873798	10005.237305	6878.862305
404.938446	-22.949089	11010.118164	7411.380371
405.382477	-25.431572	10190.812500	6745.039551
405.826447	-41.323353	8154.350586	5528.043457
406.270386	-7.062144	6406.241699	4644.369629
406.714233	-29.900682	4731.815430	3694.507813
407.158081	-8.551165	4196.746094	3257.547607
407.601868	-17.983765	4644.928223	3420.676514
408.045624	-11.529859	5702.864746	3968.096924
408.489319	-30.893969	6219.994629	4178.256836
408.933014	-22.452578	5674.924805	3852.215820
409.376617	-18.976849	4804.092773	3346.515869
409.820190	-13.515695	3970.078125	2884.147705
410.263702	-19.969952	3309.982666	2450.256592
410.707184	-36.357010	2882.804688	2149.726074
411.150635	-48.774395	2574.113525	1910.481445
411.594025	-33.377060	2379.755127	1748.507202
412.037384	-19.473331	2255.240479	1710.747803
412.480682	-26.921328	2463.788086	1820.588867
412.923981	-45.297104	3096.626709	2191.621826
413.367126	-4.580166	3829.587402	2665.060547
413.810333	-52.748520	4459.660156	3137.528076
414.253479	-52.748520	4533.992676	3188.506592
414.696533	-48.774395	4742.613281	3196.126953
415.139587	-39.833500	4901.642090	3472.460938
415.582581	-55.232536	5087.131836	3585.441895
416.025543	-8.054775	5260.645508	3744.260986
416.468414	-33.377193	5581.277344	3863.099854
416.911285	-31.887272	5349.408691	3641.886230
417.354065	-60.697578	4458.248047	3170.404541
417.796875	-45.793808	3669.475586	2725.862549
418.239594	-50.264473	3284.289063	2433.934082
418.682281	-10.040493	2854.609863	2236.384033
419.124908	-47.284084	2733.132813	1989.178833
419.567505	-41.323353	2693.882324	1920.624512
420.010071	-49.271130	2718.774658	1961.666870
420.452545	-22.949089	2900.004150	2113.111084
420.895020	-14.508569	3247.165527	2282.566406
421.337372	-6.069259	3553.739014	2488.651611
421.779785	-15.501595	3843.786865	2595.591553
422.222107	-52.748386	3962.986816	2811.015381
422.664368	-27.914564	4357.019043	3101.302246
423.106628	-52.748386	4914.298828	3512.825928
423.548798	-6.069259	5671.664551	3968.569580
423.990967	-50.264473	6702.181152	4688.056641
424.433044	-53.245289	8096.791016	5531.772949
424.875092	-29.404383	8422.631836	5731.175293
425.317078	-15.997778	7788.472168	5332.038574
425.759064	7.331630	6352.990234	4488.273438
426.200989	-44.800404	5380.226074	3832.337158
426.642853	-22.949089	4385.749023	3333.675293
427.084686	-32.880459	3822.487549	2885.103027
427.526459	-45.297104	3724.927002	2733.041260
427.968201	-6.069259	3717.344971	2676.075195
428.409912	-22.948820	3816.333008	2712.939941
428.851563	-7.558525	3995.601563	2792.364990
429.293121	-10.537169	3994.184082	2777.538086
429.734711	-39.336845	4051.827148	2919.975586
430.176239	-43.310192	4196.746094	2975.364014
430.617706	-30.893969	4553.743164	3322.735352
431.059113	-63.678658	5890.827637	4132.009277
431.500488	-47.284084	7152.158691	5024.309082
431.941833	-24.438513	8390.266602	5758.171387
432.383087	-15.004877	8138.363281	5567.671387
432.824341	-44.800404	7370.583496	5056.148438
433.265533	-21.955801	6156.921875	4429.447266
433.706726	-44.303711	5192.394043	3877.767334
434.147827	-45.793808	5038.915039	3782.151855
434.588867	-31.390551	5384.894531	4115.487793
435.029877	-22.948820	7880.951172	6031.056641
435.470825	-32.383728	14377.366211	9892.884766
435.911804	-5.076527	19100.943359	12658.693359
436.352661	-17.983765	19183.166016	12887.882813
436.793518	-23.941988	15274.958008	10636.608398
437.234283	-17.487295	13675.581055	9211.998047
437.675049	-50.761223	11790.493164	8536.448242
438.115723	-52.748520	9038.855469	7188.885742
438.556396	-21.459435	7068.830078	5507.990723
438.997040	-53.742058	6214.430664	4744.402344
439.437561	-49.271130	6052.967773	4503.328613
439.878113	-47.780804	6224.631348	4508.973633
440.318573	-30.893969	6168.055176	4381.421387
440.759033	-7.558525	6096.138184	4369.645996
441.199341	-65.666534	6222.776367	4371.059570
441.639709	-29.404383	6327.978516	4420.031250
442.079956	-42.813511	6074.322754	4340.440430
442.520264	-24.438513	5621.819824	4055.044434
442.960510	-12.026278	5562.166992	3885.337158
443.400604	-9.047829	5222.784668	3676.496094
443.840759	-9.047559	5043.127930	3632.401855
444.280762	-8.551435	4877.731934	3529.442383
444.720825	-38.840061	4750.124023	3362.208984
445.160767	-55.232265	4517.060547	3278.964111
445.600739	-57.219582	4333.464355	3097.489014
446.040558	-26.424917	4081.109863	2906.123535
446.480438	-30.397390	3786.504150	2696.184814
446.920258	-62.188236	3603.559570	2584.088135
447.359955	-13.019128	3505.793701	2661.708008
447.799713	-41.820023	3924.687256	2825.359131
448.239319	-36.853638	4069.302979	2854.518799
448.678955	-25.431707	4159.944824	2980.615234
449.118500	-28.411121	4267.012207	2991.115479
449.558014	-44.303711	3999.854980	2884.147705
449.997498	-72.623207	3880.696533	2800.973145
450.436951	-66.660019	3754.299072	2658.355469
450.876343	-53.245152	3605.457520	2601.822021
451.315674	-43.310192	3612.097656	2618.114990
451.754974	-51.754860	3750.509033	2711.982422
452.194183	-29.900951	3991.821289	2901.345947
452.633392	-28.907547	4242.495117	3010.204102
453.072510	-4.083810	4215.613770	2976.318359
453.511688	-33.873661	4192.972656	2973.454590
453.950684	-34.370403	4247.209473	2933.825439
454.389740	-35.860115	4187.311035	3025.473145
454.828735	-22.949089	4231.648438	3085.569580
455.267639	-47.284084	4325.454102	3097.012451
455.706543	-17.487295	4388.575195	3137.527344
456.145325	-53.245289	4510.475098	3234.221924
456.584137	3.361433	4424.357910	3217.080566
457.022858	-43.807152	4586.183105	3274.680908
457.461578	-30.397390	4743.083008	3304.658447
457.900208	-54.735619	4307.547363	3078.416748
458.338867	-34.370403	3553.264160	2646.381592
458.777405	-17.487295	3246.689697	2420.969727
459.215912	-34.867016	3280.006348	2433.454102
459.654388	-27.418011	3715.923584	2739.741455
460.092773	-24.438513	4215.142090	3074.125244
460.531189	-13.515695	4406.938965	3170.880859
460.969513	-49.767731	4319.799316	3010.204834
461.407806	2.368707	3608.302734	2532.305908
461.846008	-25.431707	3083.276611	2282.085693
462.284241	-49.271130	2530.479004	1894.539795
462.722351	-15.004877	2214.337891	1659.889282
463.160461	-4.083675	1965.138184	1581.844360
463.598541	-26.921328	1905.742920	1467.303101
464.036530	-11.033444	1906.709351	1415.315308
464.474518	-21.459435	1913.954712	1416.287964
464.912384	-33.873798	1968.034424	1438.641357
465.350281	-39.336845	1978.170898	1408.025024
465.788086	-38.343414	2095.853516	1499.352783
466.225891	-19.969816	2355.250488	1747.054810
466.663605	-35.860115	2953.971680	2163.211670
467.101318	-18.976849	3518.613281	2400.799316
467.539001	-39.833500	3515.764648	2535.183838
467.976563	-50.761494	3463.526855	2454.577148
468.414124	-13.515695	3393.200928	2384.948242
468.851593	-21.955801	3435.972656	2407.523193
469.289063	-27.418011	3354.691162	2492.010254
469.726440	-56.722782	3432.646729	2599.905762
470.163849	-26.921328	4080.165771	2930.960693
470.601135	-13.515695	5415.235840	3835.650635
471.038422	-24.438513	6404.852539	4429.917969
471.475677	-26.424784	6641.200684	4607.245605
471.912811	-14.012130	6554.761230	4721.397461
472.350006	-40.330158	8268.937500	6010.622070
472.787048	-78.089882	11832.379883	8490.444336
473.224121	-55.232265	16751.755859	11989.951172
473.661072	-46.787365	22455.970703	15788.121094
474.098053	-38.343414	26891.308594	18345.738281
474.534943	-41.323353	26287.224609	18037.513672
474.971802	-45.297104	22215.050781	15528.510742
475.408630	-29.404112	17857.027344	12706.591797
475.845367	-58.213333	14353.592773	10612.819336
476.282104	-39.336845	10760.521484	8543.280273
476.718750	-30.397390	7551.022461	6523.687988
477.155426	-11.033309	6148.572266	5326.900879
477.591949	-8.054775	6456.693359	5036.953613
478.028503	-39.336712	6731.736816	4995.740723
478.464966	-30.397390	6512.675781	4803.065430
478.901428	-46.290653	5828.516113	4187.221191
479.337860	-5.572891	5702.865234	4011.579102
479.774170	-46.787365	5273.263672	3801.092041
480.210510	-38.840195	4689.554688	3556.022217
480.646698	-29.404383	4783.447266	3576.901367
481.082947	-29.404112	4896.485352	3562.665527
481.519073	-22.452309	4727.121094	3490.508301
481.955200	-34.867016	4770.776367	3534.188965
482.391266	-50.761494	5269.057617	3767.471191
482.827301	-80.077980	6004.208984	4347.036133
483.263306	-19.969816	6892.326172	4996.677734
483.699188	-48.277393	7868.136230	5545.295410
484.135101	-58.213333	8407.133789	5899.572266
484.570923	-42.316967	8284.907227	5841.450684
485.006744	-22.452309	7666.133301	5395.542480
485.442413	-41.323624	6980.377930	5006.981934
485.878174	-44.303711	6090.104980	4507.562988
486.313782	-26.424784	5456.767578	4112.655273
486.749390	-40.826820	4904.454590	3683.605957
487.184998	-57.219582	4624.254395	3465.336914
487.620453	-45.297104	4733.694336	3502.380127
488.055939	-21.955801	4752.471191	3472.460938
488.491333	-3.090976	4581.953125	3294.666504
488.926727	-31.390551	4304.720215	3142.769287
489.362030	-24.438513	4132.099609	2985.865967
489.797302	-25.928244	4110.857422	2958.177979
490.232513	-59.703789	4156.641602	3053.617676
490.667755	-21.955801	4783.447266	3345.564941
491.102905	-42.813782	5096.024902	3669.385254
491.537964	-26.921328	5208.759277	3767.943848
491.973022	-43.807152	5317.648438	3789.728760
492.407990	-53.742058	5383.026855	3789.255859
492.842957	-33.377060	5115.679199	3728.153320
493.277832	-14.508569	4953.665527	3748.524170
493.712738	-11.033309	5412.435547	3956.278076
494.147491	-17.487564	5411.968262	4001.655518
494.582275	-2.594633	5277.002441	3976.132568
495.017029	-51.754860	5723.815430	4171.179688
495.451660	-27.914564	6230.658691	4334.316406
495.886292	-44.800404	5948.924805	4186.749512
496.320831	-20.466442	4817.699219	3589.237061
496.755402	-15.501326	5016.437500	3676.969727
497.189850	-92.007584	6194.954590	4398.844238
497.624298	-9.047559	7645.962402	5550.889648
498.058655	-22.452309	8556.116211	6185.591309
498.493042	-45.793941	9000.280273	6420.503906
498.927368	-41.820293	9130.031250	6442.258301
499.361572	-64.175789	8753.144531	6169.821777
499.795807	-31.390551	7905.661621	5643.162109
500.229919	-47.284084	6458.544434	4799.312012
500.664063	-68.647728	5434.837402	4218.825684
501.098083	-40.826820	5166.204102	4097.075195
501.532104	-27.418011	6199.128906	4648.127930
501.966064	-44.303711	6910.770996	5110.911133
502.399994	-37.846775	7564.326660	5552.753906
502.833893	-24.935040	8056.118652	5679.493652
503.267700	-33.873661	8197.274414	5733.503418
503.701477	-38.343414	7800.377930	5490.267578
504.135193	-35.860386	6596.370605	4783.827637
504.568909	-31.390551	6045.539551	4463.334473
505.002502	-22.452578	5667.007324	4199.486328
505.436127	-61.194416	5313.444336	4188.636719
505.869629	-21.459435	6414.112305	5056.616699
506.303162	-28.907547	9958.358398	7394.384766
506.736603	-0.609300	15218.768555	10665.779297
507.169983	-35.860115	18692.531250	13549.647461
507.603363	-34.370132	25348.076172	18712.560547
508.036621	-47.780804	41416.300781	28646.914063
508.469940	-43.807152	54846.890625	37282.207031
508.903107	-27.914564	54683.394531	38348.824219
509.336304	-42.813511	45111.261719	32607.380859
509.769379	-29.404383	39312.242188	27109.302734
510.202484	-27.418011	36481.613281	25265.642578
510.635529	-25.928244	28782.724609	22004.050781
511.068481	-33.377193	21266.679688	17779.992188
511.501434	-42.813511	16969.224609	14146.945313
511.934265	7.331630	13645.560547	11087.027344
512.367126	-26.424784	10057.960938	8319.948242
512.799927	-49.767731	7274.981445	6034.307129
513.232605	-56.722782	5892.222168	4758.953125
513.665344	-29.900951	5035.637207	3976.133057
514.097961	-14.508569	4328.280762	3567.885498
514.530579	-46.290653	3907.660645	3161.352783
514.963135	-18.976849	3971.496094	3024.518066
515.395691	-7.062144	4184.952637	3087.000000
515.828064	-26.921328	4258.525879	3147.058350
516.260498	-21.955801	3997.964844	2906.601074
516.692871	-32.880459	3600.239014	2663.144775
517.125183	-4.083810	3383.218262	2443.055908
517.557373	-35.363632	3357.068604	2415.687500
517.989624	-36.356739	3180.975830	2373.897949
518.421753	-24.935175	2992.637695	2236.865234
518.853943	-55.232265	2877.071289	2137.683594
519.286072	-28.411121	3049.416016	2261.883301
519.718018	-35.860115	3268.584961	2404.161865
520.150024	-56.722782	3631.543945	2747.876221
520.581909	-62.685085	5117.551270	3609.635986
521.013855	-61.194553	6680.471680	4553.183105
521.445679	-52.251621	8069.373047	5672.973145
521.877502	-21.459435	7851.199707	5520.116699
522.309204	-41.323353	7240.953613	5122.141113
522.740906	-17.983898	6241.783691	4472.746582
523.172546	-45.793808	5572.887695	3936.419434
523.604187	-35.363361	5418.969727	3989.367432
524.035767	-51.754860	4900.704590	3744.734619
524.467224	-20.466171	4238.250977	3279.440186
524.898682	-41.820293	3595.494873	2910.422363
525.330078	-37.846775	4507.651855	3382.652344
525.761475	-51.258106	5635.797852	3826.657471
526.192749	-69.144493	5835.492188	4088.576172
526.624023	-26.424784	4532.110840	3438.732666
527.055237	-31.887272	3792.660156	2740.698242
527.486389	-30.893969	3618.263916	2608.052246
527.917542	-47.780804	4112.745117	2943.376953
528.348572	-44.303711	4883.357910	3626.236572
528.779663	-41.820293	5168.542480	3790.676025
529.210571	-68.647858	4636.940918	3464.861572
529.641541	-63.678658	4048.048096	2961.520020
530.072388	-20.962936	4212.783203	2898.958252
530.503235	-32.880459	4135.403809	2983.479248
530.934082	-17.983765	3896.308105	2890.836426
531.364746	-24.438513	3693.176270	2714.854248
531.795532	-52.251621	3572.721436	2758.880615
532.226135	-23.445469	3618.738037	2741.655518
532.656738	-17.983765	3950.222168	2767.013672
533.087280	-16.494370	4279.740234	3173.739258
533.517822	-0.609300	5541.187988	4040.872803
533.948242	-34.370403	7590.474609	5465.077148
534.378662	-36.853638	11038.770508	7859.810059
534.809082	-37.846775	14863.407227	10360.333984
535.239319	5.346700	18577.978516	12759.356445
535.669617	-28.411121	18666.734375	12861.740234
536.099792	-29.900951	15815.380859	11161.750000
536.529968	-31.390551	11710.254883	8522.786133
536.960083	-16.494370	10661.377930	7780.598633
537.390137	-29.404383	10869.010742	7991.114258
537.820190	-30.893969	9898.834961	7741.202148
538.250183	-13.019128	7771.525391	6630.946777
538.680115	-17.983765	7760.532227	6142.916016
539.109985	-34.370403	9502.738281	6667.448730
539.539795	-62.685085	9967.374023	7102.816406
539.969543	-26.921328	8025.950195	6039.414551
540.399292	-48.277664	6035.323730	4548.951172
540.828979	-15.004877	5508.079590	3973.297363
541.258606	-22.452578	5388.629395	3908.516357
541.688171	1.872406	5096.493164	3946.349854
542.117737	-17.487564	4834.585938	3836.123779
542.547302	-25.431707	4906.798340	3778.837402
542.976685	-41.323353	5526.733887	4040.400391
543.406128	-36.356739	6072.001465	4383.775879
543.835388	-62.685085	6944.887207	5018.221680
544.264771	-29.404112	8898.119141	6318.624512
544.693970	-34.867016	10785.184570	7621.114258
545.123230	-7.062144	13698.974609	10468.657227
545.552307	-25.431707	30627.328125	21460.513672
545.981506	-12.522700	51963.039063	34022.726563
546.410583	-47.780804	59849.878906	40801.718750
546.839539	-7.558525	48011.894531	34713.093750
547.268555	2.865140	34790.742188	24362.156250
547.697449	-16.990829	34647.136719	23003.732422
548.126282	-29.900682	37395.796875	25260.773438
548.555054	-42.813511	34544.734375	25728.929688
548.983887	-22.452309	24874.560547	21178.001953
549.412598	-40.330158	16042.839844	14083.930664
549.841309	-26.921463	12218.702148	9739.446289
550.269958	-25.431707	10350.527344	7970.991699
550.698486	-54.735619	9592.711914	7900.999023
551.127075	-50.761494	11492.083984	9287.662109
551.555481	-26.424784	15560.616211	11748.510742
551.983948	-32.880459	18422.332031	13172.125977
552.412292	-57.219852	18064.703125	12795.707031
552.840698	5.842972	15117.774414	10785.546875
553.268860	-29.404383	12482.604492	8865.777344
553.697205	-38.343414	10642.528320	7527.533203
554.125366	-34.867016	9547.505859	7047.095703
554.553467	-38.840061	8257.073242	6645.732910
554.981628	-38.840195	6706.798828	5715.346680
555.409607	-1.601823	5824.329102	4868.264160
555.837646	-66.660156	5378.358398	4273.050781
556.265564	-73.617218	5299.896484	3892.906250
556.693481	-38.840195	5209.226074	3772.680664
557.121338	-38.343414	4894.141602	3583.544678
557.549133	-26.921328	4630.832520	3293.714844
557.976929	-37.350140	4356.547363	3175.645264
558.404602	-11.033444	4495.891602	3383.127686
558.832275	-39.833500	5258.775879	3800.145996
559.259888	-44.303711	5555.173828	4060.239502
559.687439	-30.893969	5192.861328	3886.756592
560.114929	-27.914564	4378.684570	3230.888916
560.542419	-17.983898	4160.888672	3009.250244
560.969788	-63.678658	4230.234375	2981.092285
561.397156	-41.820293	4050.882813	2909.466797
561.824524	-14.508569	3659.993896	2773.232178
562.251770	-38.840061	3397.479004	2587.444092
562.679016	-9.047559	3388.922607	2523.672852
563.106140	-16.494370	3356.592529	2519.355713
563.533264	-36.853638	3472.551758	2484.812744
563.960327	-24.438513	3629.646484	2650.692139
564.387329	-49.767731	4260.411621	3000.182861
564.814331	-51.754860	4550.921875	3311.318359
565.241272	-46.290653	5057.642578	3659.904053
565.668213	-27.914564	5407.767578	3842.277100
566.094971	-34.370132	5935.449219	4375.769043
566.521790	-60.697578	9846.503906	7046.634766
566.948425	-38.343685	17126.279297	11357.119141
567.375183	-38.343685	20540.794922	14164.128906
567.801819	-38.840195	19234.771484	14164.128906
568.228394	-37.846642	20860.664063	14747.272461
568.654846	-71.629478	25826.513672	17271.414063
569.081421	-37.846775	27317.761719	19084.242188
569.507874	-41.820023	25281.662109	18779.021484
569.934265	-35.363632	24748.082031	17956.632813
570.360596	5.842972	26349.777344	18884.398438
570.786865	-48.277664	26874.431641	19333.539063
571.213074	-50.761494	27523.533203	19585.074219
571.639282	-15.004877	25982.548828	19070.248047
572.065430	-8.054775	21722.187500	16217.549805
572.491516	-48.277664	17818.990234	13305.261719
572.917603	-17.487295	14345.667969	10994.807617
573.343567	-28.411121	11302.685547	8657.082031
573.769531	-7.062144	8857.685547	7144.708008
574.195435	1.872406	7012.633301	6057.059082
574.621277	-39.833500	5655.828613	5046.785645
575.047119	-52.251621	4894.609375	4258.435547
575.472839	9.316763	5079.175781	4064.490967
575.898560	-17.487564	6931.980469	5114.654297
576.324158	-40.330158	12325.818359	8456.270508
576.749817	-39.833500	18583.660156	12315.068359
577.175293	-25.431707	20826.042969	14187.918945
577.600830	-19.473331	18025.789063	12723.000000
578.026306	-39.833500	15066.831055	10520.767578
578.451721	-30.397390	18020.982422	12004.196289
578.877136	-33.377060	22854.132813	15022.822266
579.302429	-43.310192	23523.724609	16473.285156
579.727661	-21.956072	19045.404297	14586.311523
580.152832	-17.487295	13981.748047	10816.034180
580.578064	-55.729324	11715.603516	8602.924805
581.003113	-57.716389	10258.769531	7310.292969
581.428223	-34.867016	8411.691406	6475.115234
581.853271	9.316763	6484.918457	5560.212891
582.278198	-18.976849	4862.257813	4451.569336
582.703125	-21.459435	3908.133545	3482.909668
583.127930	-28.411121	3302.369873	2831.574219
583.552795	-21.955801	2925.320557	2370.535156
583.977539	-52.251621	2726.911133	2128.529785
584.402283	-26.424784	2714.467041	2045.139648
584.826965	-37.350140	2684.305908	2028.258667
585.251587	-39.336712	2745.574463	2051.408691
585.676208	-42.316967	2858.911865	2150.689453
586.100647	-51.257973	3006.954834	2273.427979
586.525208	-34.867016	3447.850586	2583.129883
586.949524	-23.941988	4124.547363	2976.319336
587.373962	-11.529859	5688.430664	4125.400879
587.798218	-18.480371	9968.276367	7121.693359
588.222534	-31.390551	19074.267578	12878.579102
588.646729	-30.893969	29019.048828	19535.636719
589.070984	-60.200748	36952.542969	25454.267578
589.495117	-17.487295	42743.632813	29755.212891
589.919128	-41.323624	48912.738281	33751.656250
590.343201	-50.761494	51940.589844	35835.761719
590.767151	-38.343414	50001.589844	35197.000000
591.191101	-47.780804	44903.910156	32247.380859
591.614990	-16.494370	40115.519531	29403.984375
592.038818	-57.219852	35463.332031	26412.695313
592.462524	-33.873661	31184.056641	23527.166016
592.886292	-19.969816	26731.458984	21099.949219
593.310059	-37.350002	22905.634766	18280.160156
593.733582	-34.370132	19796.060547	16020.846680
594.157227	-56.226120	17264.060547	13924.782227
594.580750	-39.336845	15325.875977	12223.506836
595.004272	-49.767731	13776.650391	10804.825195
595.427673	-49.271130	12631.717773	9859.051758
595.851074	-45.297104	11697.324219	9131.759766
596.274353	-29.404112	11219.978516	8576.520508
596.697632	-68.647728	10826.429688	8088.936035
597.120911	-16.494370	10368.512695	7835.548340
597.544067	-23.941988	9582.767578	7292.824707
597.967224	-45.297104	8876.768555	6708.560059
598.390320	-30.397390	8610.750000	6419.115234
598.813354	-66.163139	8588.899414	6318.161133
599.236328	-23.445469	8326.878906	6132.710449
599.659241	-55.729324	7467.032227	5694.860352
600.082153	-48.277393	6855.887695	5190.901367
600.505005	-29.404383	6401.148926	4807.757813
600.927795	-27.417742	6052.968750	4510.855469
601.350525	-34.370403	5763.379395	4350.333984
601.773254	7.331900	5457.234375	4280.121582
602.195862	-21.459435	5606.909180	4200.901367
602.618408	-30.893969	5532.328613	4170.235840
603.040955	0.879790	5404.500977	3988.894775
603.463440	-54.238834	5027.677246	3698.299316
603.885925	-29.404383	4772.653320	3579.748291
604.308350	-25.431707	4623.784180	3454.410889
604.730652	-34.370403	4443.657715	3270.873779
605.152893	-41.323624	4235.420898	3092.244629
605.575195	-26.424784	4022.064453	3009.727783
605.997375	-13.019128	3773.243896	2864.076904
606.419495	-68.647858	3664.260986	2815.796387
606.841553	-20.466442	3466.376953	2593.195313
607.263672	-14.508703	3413.638916	2598.467285
607.685608	-25.928244	3441.198486	2544.295166
608.107605	-10.537169	3393.200439	2496.807861
608.529480	-14.012130	3394.626953	2527.030273
608.951294	-23.941988	3580.313232	2667.455322
609.373108	3.857452	4813.007324	3603.469971
609.794800	-24.438513	12150.665039	8299.875977
610.216553	-2.594633	21144.755859	13979.018555
610.638123	-33.873661	25002.404297	17334.832031
611.059753	-20.466442	19569.845703	14865.520508
611.481262	-22.949089	13732.518555	10087.158203
611.902832	-43.310192	11669.674805	7768.689453
612.324219	-26.424784	10794.151367	7285.008789
612.745605	-35.860115	9571.919922	7048.017090
613.166931	-48.774395	7340.715332	6392.263672
613.588196	-25.431572	5370.888184	5286.725098
614.009460	-45.793941	4338.175293	4135.313477
614.430664	-43.310192	3987.567139	3393.585693
614.851807	-28.907547	3871.706787	3118.939941
615.272827	-30.397390	3791.713379	2912.811035
615.693909	-38.343414	3716.398193	2782.321289
616.114929	-20.962666	3677.534424	2674.159180
616.535889	-9.544091	3566.078125	2637.279541
616.956787	-20.962936	3393.200928	2469.936035
617.377563	-25.928244	3187.167725	2336.415527
617.798340	-38.343414	3252.401855	2340.260498
618.219055	-44.303711	3315.690674	2374.378906
618.639832	-6.565767	3428.369873	2511.201172
619.060364	-20.962936	3607.829102	2628.176758
619.481018	-21.955801	3858.930664	2735.434326
619.901611	-26.424784	3888.265869	2849.738525
620.322083	-37.846775	4969.596191	3566.937012
620.742493	-50.761494	7353.122559	4872.483887
621.162842	-33.873661	8665.814453	5900.036621
621.583191	-42.316967	8119.178711	5810.750977
622.003418	-67.156906	5869.905273	4322.537598
622.423706	-47.780937	5043.128906	3563.140381
622.843872	-38.343414	4747.776855	3357.929199
623.264038	-52.748386	5810.374512	4101.796875
623.684143	-34.867016	8038.294434	5570.468262
624.104126	-30.397390	8920.374023	6507.036133
624.524170	-21.459435	8407.588867	6354.754883
624.944031	-40.826958	6817.131836	5068.788574
625.364014	-35.363632	7545.058105	5181.548340
625.783752	-13.019128	8623.493164	5819.589355
626.203552	-28.907547	8917.194336	6201.358887
626.623230	-35.860115	7261.647461	5564.874023
627.042969	-16.494370	5762.449219	4556.944824
627.462585	-15.005148	5660.020996	4158.910645
627.882141	6.339106	5731.729492	4128.705566
628.301697	-41.323624	5241.015137	3901.894287
628.721130	-38.840061	4362.199707	3507.128662
629.140625	-11.529859	3830.060791	3043.600830
629.559998	-25.927973	3675.638428	2919.498047
629.979309	-52.251888	5982.377930	4147.584473
630.398560	-45.793941	8723.130859	5850.286621
630.817810	-45.793808	9832.066406	6883.936523
631.237000	-28.411121	7842.959961	5916.306641
631.656067	-15.501595	5685.169434	4268.807617
632.075195	-18.976849	5041.255371	3454.885742
632.494202	-4.083810	4795.178223	3260.879395
632.913208	-32.383865	4298.593262	3163.258057
633.332092	-21.459435	3527.158447	2960.087646
633.750977	-5.076257	2936.304443	2643.507324
634.169739	-33.377060	2715.902588	2297.474609
634.588562	-38.343685	2542.468506	2031.635254
635.007263	-17.983765	2282.177490	1772.702637
635.425964	-11.033444	2000.369263	1529.448120
635.844543	-38.343414	1886.418213	1414.829712
636.263123	-36.356739	1834.219238	1344.809204
636.681641	-33.873661	1814.394287	1335.079102
637.100037	-44.800404	1992.648804	1519.740845
637.518494	-30.893969	2590.890869	1787.216187
637.936829	-52.748386	2977.841309	2111.665283
638.355164	-26.921328	2834.533936	2092.869873
638.773438	-39.833500	2316.318115	1732.534424
639.191650	-33.873661	2098.263428	1437.183594
639.609863	-41.323353	1997.956299	1380.313721
640.027893	-87.533714	1946.310059	1398.789063
640.445984	-44.800404	1996.026367	1435.726074
640.863953	-50.264473	2543.906738	1826.391113
641.281921	-20.962936	3152.390381	2183.436768
641.699829	-41.323624	3080.415283	2233.015381
642.117676	-25.928244	2440.267090	1825.424072
642.535461	-19.969952	2094.889893	1531.389282
642.953247	-40.826820	2080.429199	1478.473633
643.370972	-8.551435	2187.380371	1468.760254
643.788635	-23.941988	2172.453369	1588.148926
644.206177	-33.377060	2075.126465	1621.603149
644.623718	-26.424784	2060.662354	1599.302246
645.041260	-60.697308	2123.803711	1595.907715
645.458618	-22.948820	2236.957031	1658.920532
645.876099	-33.873798	2321.605469	1615.301514
646.293396	-21.955801	2147.409668	1626.935669
646.710693	-52.251888	2056.322266	1524.109009
647.127991	-42.813511	1885.935181	1342.376953
647.545166	2.368707	1846.788696	1319.994629
647.962341	-6.069394	1694.374878	1264.498047
648.379333	-7.062144	1672.578247	1250.860962
648.796448	-29.404383	1614.424561	1234.785156
649.213379	-25.928244	1590.665649	1210.909180
649.630310	-57.219582	1498.959717	1135.332642
650.047180	-20.466442	1438.734375	1098.735107
650.463989	-66.660156	1382.837524	1031.347778
650.880859	-27.418011	1394.992554	999.585266
651.297546	-67.157043	1360.953857	964.875061
651.714233	-41.820293	1298.186035	975.143250
652.130859	-34.370132	1390.130737	983.454590
652.547485	-34.867016	1505.270996	1101.663818
652.963928	-14.508569	1537.305054	1111.424072
653.380432	-36.853367	1569.325928	1107.520142
653.796814	-50.761494	1418.810547	1073.838135
654.213196	-50.264473	1343.442627	968.297607
654.629578	-38.343414	1314.247803	938.953186
655.045837	-43.310463	1298.672607	959.006775
655.462036	-25.928244	1361.926514	961.940552
655.878174	-36.356739	1335.171753	1008.871399
656.294312	-22.948820	1286.502319	955.094238
656.710327	-38.343414	1182.243286	891.976746
657.126404	-21.955801	1227.570190	885.123413
657.542358	-56.722782	1232.929810	913.021912
657.958252	-38.840195	1366.790405	967.808838
658.374084	-59.703922	1513.038330	1131.429688
658.789917	-34.867016	1673.547119	1222.604858
659.205688	-7.062144	1751.503052	1247.938599
659.621338	-30.893969	1669.671387	1192.875610
660.037048	-48.277664	1587.756348	1165.572388
660.452637	-24.935040	1584.846558	1108.008301
660.868164	-2.098428	1476.137573	1050.886719
661.283691	-43.310463	1348.793579	1067.979126
661.699158	-37.846775	1298.185791	960.473877
662.114502	-21.459435	1286.502319	958.517578
662.529846	-70.138588	1155.911987	894.424011
662.945129	-7.062144	1186.143921	847.417480
663.360413	-37.350002	1133.473877	818.512512
663.775635	-14.012130	1152.498047	837.130859
664.190674	-43.807152	1131.034912	804.300598
664.605835	-52.251621	1102.244873	859.172180
665.020813	-41.820293	1120.301025	843.498962
665.435791	-33.873661	1148.595947	828.312134
665.850769	-24.438513	1264.103638	933.572144
666.265625	7.828021	1358.521851	990.787109
666.680420	-43.806885	1458.166626	1059.677490
667.095215	-44.800404	1450.394409	998.118896
667.509949	-7.558525	1513.523438	1077.255859
667.924622	-41.323353	1664.342285	1195.313232
668.339233	-72.623207	1926.029175	1386.634644
668.753784	-50.761494	2586.576416	1743.666626
669.168335	-19.473331	3605.931641	2529.428223
669.582825	-35.363632	6842.970215	4601.135254
669.997192	-15.501326	13713.541016	8881.224609
670.411560	-26.424784	22678.542969	14696.707031
670.825867	-17.983765	29844.330078	19968.851563
671.240173	-23.445333	31025.646484	21550.472656
671.654358	-20.466442	28184.742188	19870.373047
672.068481	-42.316967	23528.572266	16687.777344
672.482605	-26.921328	20148.849609	13941.099609
672.896667	-44.800674	17777.453125	12648.046875
673.310669	-43.310192	15217.889648	11594.649414
673.724609	-38.343414	12737.714844	10456.974609
674.138489	-15.501595	10158.398438	9059.640625
674.552307	-54.735619	7717.923828	7310.752930
674.966064	-38.343414	6046.468262	5699.982422
675.379822	-54.238834	4966.316895	4375.769531
675.793579	-18.976849	4208.538574	3611.533447
676.207153	-36.853367	3663.786377	3059.341309
676.620789	-26.424784	3220.980957	2662.187256
677.034241	-41.323624	2914.812988	2364.769043
677.447754	-43.310192	2638.808105	2098.653564
677.861206	-23.445469	2457.068115	1934.146729
678.274597	-39.833229	2373.028809	1805.597534
678.687866	-38.343414	2170.527344	1694.766968
679.101135	-64.672379	2131.993896	1577.964233
679.514404	-38.343685	1998.921753	1553.224976
679.927551	-46.290653	1939.067505	1497.895874
680.340698	-55.729324	1857.423218	1398.788818
680.753723	-24.935040	1798.434204	1302.960693
681.166748	-22.452578	1802.303345	1379.341431
681.579712	-26.921328	1969.964966	1418.231567
681.992615	-23.941988	2076.572266	1470.702881
682.405457	-48.277393	2096.817139	1549.343384
682.818298	-48.774395	2078.982666	1551.769287
683.231018	-36.357010	2152.226074	1546.432007
683.643738	-21.955801	2174.861328	1545.946655
684.056335	-52.748520	1961.759399	1418.717773
684.468994	-21.955801	1753.439087	1282.027832
684.881531	-39.833500	1644.476196	1196.775513
685.293945	-47.780937	1597.939819	1125.575195
685.706482	-35.860115	1480.508179	1112.400391
686.118774	-51.257973	1423.670288	1062.119263
686.531128	-55.232265	1320.574585	980.032166
686.943481	-35.860115	1260.694946	948.247253
687.355713	-28.907547	1290.396973	938.463928
687.767883	-28.907547	1314.734375	1003.006470
688.179932	-23.941988	1377.002441	985.409729
688.592041	-17.983765	1323.980591	982.965332
689.004089	-9.047559	1255.337524	969.275574
689.416016	-35.363632	1213.926392	898.339966
689.827881	-18.480371	1217.824951	853.295349
690.239868	-32.383865	1185.655884	851.335754
690.651611	-12.522700	1319.600952	884.633728
691.063354	-10.040493	1330.306396	997.630249
691.475098	-40.826820	1359.494873	944.333862
691.886719	-33.873798	1206.128906	900.297913
692.298340	-9.047829	1127.131958	863.579834
692.709900	-7.062144	1131.034912	804.790283
693.121460	-34.867016	1092.482788	775.377563
693.532837	-52.251621	1066.607300	807.731140
693.944214	-26.921463	1139.816162	839.580322
694.355652	-36.356739	1136.401123	831.741699
694.766846	-13.019263	1112.493530	816.062378
695.178101	-33.873661	1137.864746	828.312134
695.589294	-4.083675	1065.142334	779.790039
696.000366	-36.356739	1071.490234	778.319153
696.411438	-35.860115	1070.025146	763.118103
696.822510	-16.494370	1073.442993	768.512390
697.233459	-26.921463	1014.828308	751.837402
697.644409	-41.820293	1027.043579	745.951172
698.055298	-30.397390	1021.180420	761.646790
698.466064	-22.452578	1115.421265	829.292236
698.876831	-58.213333	1215.875610	873.373108
699.287537	-38.840195	1232.929565	863.579590
699.698181	-38.840195	1201.742065	880.717041
700.108826	-46.290653	1217.824951	883.164978
700.519348	-43.310192	1295.751831	861.621094
700.929810	-28.411121	1258.259766	902.744873
701.340271	-21.459435	1173.467529	907.638794
701.750732	-14.012130	1168.103638	832.231689
702.161011	-15.004877	1093.947144	816.552185
702.571350	-22.949089	1050.491455	739.083313
702.981567	-52.748520	949.318237	724.364380
703.391724	-47.780804	908.221741	659.070374
703.801880	-42.813511	869.549011	634.016113
704.211914	-39.833500	818.115906	554.861267
704.621948	-31.390551	740.158081	582.896240
705.031921	-36.853638	756.835632	547.973755
705.441895	-23.941988	750.949829	538.625244
705.851746	-72.623207	707.772034	496.294342
706.261536	-33.873661	747.025818	524.846313
706.671265	-53.245289	716.606018	553.385620
707.081055	-49.271130	721.513367	535.672913
707.490662	-29.404383	725.929688	531.736023
707.900330	-47.780804	743.101379	515.986328
708.309814	-18.976849	764.192261	528.291443
708.719299	-35.363632	799.002197	579.453735
709.128784	-41.820023	716.606262	536.657043
709.538147	-49.271130	690.100281	523.862061
709.947510	-39.336712	745.554138	487.923248
710.356750	-20.962936	727.401489	491.370300
710.766052	-27.914564	667.022278	454.428711
711.175171	-59.206963	629.195862	492.847595
711.584290	-28.907547	594.298340	471.670563
711.993347	-54.238834	643.936096	457.384705
712.402405	-33.873661	654.743469	491.863068
712.811401	-35.860386	635.092590	497.771545
713.220276	-31.887136	628.213379	485.461243
713.629150	-15.998048	608.554626	421.409546
714.037964	-24.935175	635.583984	459.355591
714.446777	-35.860115	582.006165	433.732086
714.855408	-21.955801	627.230652	447.530579
715.264099	-20.466171	590.856750	403.661041
715.672668	-13.019128	575.613403	467.237610
716.081177	-33.377060	608.062988	461.326111
716.489746	-29.900951	704.827148	492.355316
716.898132	-9.047559	741.629578	531.243774
717.306519	-38.840195	729.364319	555.845337
717.714844	-42.813511	677.825928	455.414063
718.123108	-16.990829	605.605469	393.798370
718.531372	-41.820293	577.580383	410.070465
718.939514	-53.245289	576.596924	410.563629
719.347595	-47.284084	563.809387	409.084686
719.755676	-32.383865	539.211304	407.112274
720.163696	-31.887136	565.776489	423.874023
720.571716	-44.303711	590.856750	428.310516
720.979614	-59.703922	590.856750	376.042145
721.387451	-13.515695	569.711670	424.367096
721.795227	-33.377060	566.268738	414.014496
722.202942	-19.473331	539.703247	398.236664
722.610718	-42.316967	500.819305	367.655151
723.018311	-26.424784	493.926361	329.161285
723.425903	-63.678658	483.092590	342.488525
723.833374	-58.710148	448.117249	386.893707
724.240906	-27.914564	518.049377	351.865814
724.648376	-32.383728	458.956604	321.755463
725.055725	-21.459435	497.372803	356.306732
725.463013	-45.297104	503.281281	322.742859
725.870300	-33.377060	465.853241	348.411011
726.277466	-16.990829	460.927399	334.097321
726.684631	-62.188236	456.985992	307.929657
727.091797	-56.722782	441.711060	335.084778
727.498779	-40.826820	443.682404	318.792908
727.905823	2.865005	422.489288	333.603577
728.312805	16.760183	450.088104	332.123108
728.719666	-33.377060	430.868561	305.954620
729.126526	-50.264744	388.467041	327.680206
729.533264	-51.258106	424.953979	277.798798
729.940063	-46.290653	423.474823	318.792908
730.346680	-22.948820	444.667664	246.170074
730.753357	-46.290653	397.837280	316.324341
731.159851	-4.580166	442.696869	294.100800
731.566406	-25.431707	419.531647	285.209259
731.972900	-30.893969	412.629761	291.136902
732.379272	-43.310192	428.897339	325.704987
732.785645	-26.424784	430.375824	338.046326
733.191895	-18.976849	427.418579	316.817963
733.598206	-11.529859	462.405151	259.515228
734.004333	-31.887136	439.739960	294.100800
734.410522	-27.417742	450.580963	332.616333
734.816528	-45.297104	405.233948	288.173157
735.222656	-18.976849	402.768494	292.125061
735.628662	-24.438782	405.233948	297.064545
736.034546	-67.157043	401.289368	263.962982
736.440430	-33.377060	405.727142	298.546356
736.846252	-51.258106	417.559845	266.433899
737.252014	-37.847046	403.261719	317.311829
737.657715	-49.271130	414.601715	299.533844
738.063354	-20.466442	474.227722	330.642090
738.468933	-47.284084	472.257019	287.679047
738.874512	-0.609300	481.122986	346.930634
739.280029	-42.813511	458.463806	291.630981
739.685486	-30.893969	481.615326	317.311829
740.090881	-18.976849	481.615051	319.287018
740.496216	-58.213333	453.044312	335.578247
740.901550	-33.377060	440.232605	289.161102
741.306702	-50.264473	446.638916	296.076996
741.711914	-48.277393	429.883087	320.768036
742.117004	1.376100	466.346252	332.616333
742.522095	-4.083675	457.478790	336.565430
742.927124	25.195030	467.824097	283.727417
743.332031	-26.424784	451.566101	323.730530
743.737000	-51.754860	468.316559	302.003326
744.141785	-52.251621	458.956848	320.768311
744.546631	-47.284084	478.660187	274.834137
744.951355	-32.880459	466.346252	283.233002
745.356079	-40.826820	456.000671	272.857819
745.760620	-47.284084	411.643494	316.817688
746.165283	-13.515425	399.316742	276.316498
746.569824	-16.990829	418.052948	300.027863
746.974243	-48.277664	416.573364	300.027863
747.378723	-13.515695	399.809967	301.015594
747.783020	0.879655	397.837280	288.667267
748.187378	-32.383865	417.066467	283.727417
748.591614	-17.487295	445.653412	349.891632
748.995850	-25.928244	419.531647	301.509338
749.399963	-51.754860	409.671692	295.582672
749.804077	-13.515695	397.344025	292.125061
750.208130	-54.735619	412.136658	253.584320
750.612122	-20.962936	432.840210	275.822296
751.016052	-21.459435	395.371796	262.480621
751.419922	-45.297375	372.189423	288.173157
751.823792	-50.264473	397.344299	300.027863
752.227478	-23.941988	445.160553	301.509888
752.631226	-32.880459	470.287079	311.880310
753.034851	-5.076257	436.783112	288.173157
753.438477	-31.390551	431.854523	295.088623
753.842102	-19.473331	397.837280	263.963257
754.245544	-77.096062	383.534973	266.433899
754.648987	-67.157043	370.215881	299.040100
755.052368	-17.487295	392.905945	293.113220
755.455750	-32.880459	424.953979	291.136902
755.859009	-48.277393	414.108887	317.311829
756.262268	-31.887136	407.206146	320.768311
756.665405	-26.921328	426.432526	271.375397
757.068542	-16.494370	430.868561	288.173431
757.471680	-27.418011	417.066742	317.805695
757.874634	-19.473331	446.146027	283.233276
758.277588	-43.806885	386.987610	309.411194
758.680420	-46.290653	426.432800	286.691650
759.083374	-50.761223	430.376099	302.991058
759.486084	-37.350140	381.068420	245.675629
759.888916	-33.873798	347.517975	285.209259
760.291504	-50.264744	344.557129	239.743378
760.694214	-43.807152	343.076141	244.192551
761.096802	-37.846775	324.318085	252.101700
761.499268	-19.969952	360.841827	233.810837
761.901733	-34.370132	336.659668	221.943512
762.304199	-50.264473	343.076141	214.525192
762.706543	-33.377060	331.723328	200.675781
763.108826	-24.438782	368.736023	223.427124
763.511108	-38.840195	305.554688	259.021179
763.913208	-40.826820	355.414063	254.078690
764.315369	-43.310463	338.634003	226.393967
764.717529	-17.487295	355.414063	263.468689
765.119568	-20.466442	372.189423	270.386902
765.521545	-15.501326	348.998596	246.170074
765.923462	-20.962936	540.687256	352.852722
766.325317	-42.317101	706.299500	451.965149
766.727112	-15.005148	822.036133	524.354065
767.128845	-38.840195	691.082397	490.877991
767.530518	-37.350140	550.035522	403.660767
767.932251	-42.813511	474.720093	342.488525
768.333862	-39.833500	471.272186	299.533844
768.735413	-55.232265	421.503418	324.717896
769.136841	-36.853367	528.877075	382.947998
769.538269	-26.921463	570.695251	415.493835
769.939636	-49.767731	674.879578	485.461517
770.341003	-28.907547	596.756592	488.908386
770.742249	-17.487295	485.554962	388.866455
771.143433	-52.251621	447.624390	334.097321
771.544617	-27.914293	433.825897	317.311829
771.945740	-42.316967	419.531647	265.939880
772.346802	-32.880459	377.122375	268.904663
772.747803	-27.418011	439.739960	271.869629
773.148682	-59.703789	381.562073	309.411194
773.549622	-57.716660	423.967896	335.084503
773.950439	-44.303711	451.073517	323.236694
774.351196	-16.990829	461.912659	347.424011
774.751892	-5.076527	447.131500	351.372192
775.152588	-55.232536	397.837280	291.136902
775.553162	-8.551435	361.828613	255.067169
775.953735	-19.969952	318.887421	255.067169
776.354309	-13.019128	333.697784	286.691101
776.754639	-37.350140	315.430817	243.698380
777.155090	-36.853638	276.904755	220.954514
777.555420	-29.404383	338.140289	213.535812
777.955750	-49.271130	315.430817	194.739212
778.355896	-41.820023	282.833435	206.611252
778.756104	-54.238834	338.140564	203.643723
779.156189	-28.907547	330.242279	288.667267
779.556274	-13.019128	362.815399	260.997955
779.956299	-60.200748	386.000916	245.181458
780.356201	-70.635368	367.255859	270.387177
780.756165	-41.820293	374.162628	233.810837
781.156006	-21.459435	318.887177	204.138229
781.555786	-30.893969	310.986725	229.855240
781.955505	-35.860115	349.985565	221.448883
782.355225	-44.800404	312.468231	238.260178
782.754761	-1.602093	349.491943	214.525192
783.154358	-2.594633	309.505219	224.415817
783.553894	-23.445469	304.073029	223.921753
783.953369	-42.316967	354.920502	216.009003
784.352783	-50.761494	388.960358	265.445862
784.752075	-26.921328	342.582458	239.248901
785.151367	-46.290520	387.480927	261.492279
785.550598	-20.466442	368.242554	253.584320
785.949768	-64.672379	371.695984	255.561539
786.348877	-51.754860	332.710571	240.237885
786.747986	-25.431707	342.089325	269.893188
787.147034	-48.277664	332.710297	246.664246
787.545959	-35.860115	341.595642	251.607574
787.944885	-32.383865	335.672485	236.282959
788.343750	0.383610	345.050262	222.932770
788.742493	-31.887272	338.634277	247.652832
789.141235	-53.742058	313.455780	246.170334
789.539917	-35.363632	295.182648	218.976181
789.938538	-44.303711	268.504761	216.503403
790.337158	-53.742058	297.158539	170.987167
790.735718	-15.998048	301.109619	189.791855
791.134094	-24.438513	268.010498	181.874710
791.532532	-43.310463	252.195801	198.696808
791.930847	-19.969952	264.057343	177.915756
792.329224	-55.729053	273.445831	169.502289
792.727417	-53.245289	225.004837	167.522568
793.125610	-17.983898	240.331985	161.087662
793.523682	-39.336845	232.915894	175.441299
793.921753	-28.907547	238.849060	160.592804
794.319824	-54.735619	223.026627	166.037888
794.717773	-42.813782	215.608734	167.027771
795.115723	-39.833500	199.285812	175.936310
795.513550	-19.969816	219.564987	149.206512
795.911377	-34.867016	214.124939	142.769928
796.309082	-13.515695	194.338531	181.379745
796.706787	-6.565497	225.499161	139.303604
797.104370	-20.466442	202.748596	149.701736
797.501953	-65.666260	231.432770	176.926300
797.899536	-27.418011	235.388290	169.007492
798.296936	-29.900951	267.022491	156.632462
798.694397	11.797918	228.466171	169.007492
799.091736	-23.941988	212.146652	180.390106
799.489014	-15.998048	185.432678	160.592804
799.886230	-43.310463	206.211197	156.137573
800.283447	-30.397390	204.727173	138.313126
800.680542	-15.997778	213.135803	150.196808
801.077637	-50.264473	219.565262	138.313126
801.474670	-31.390551	172.071182	119.988251
801.871643	-52.251621	224.015884	151.681885
802.268555	-61.691391	191.369888	131.875397
802.665405	-35.363632	250.218475	166.037888
803.062256	-6.565497	215.608734	158.117661
803.458923	-51.258106	226.982971	151.186813
803.855652	-21.955801	207.200424	153.167328
804.252258	-30.397390	291.725037	169.997330
804.648804	-56.226120	242.309631	200.180984
805.045410	-23.941988	250.218750	158.117661
805.441833	-24.935175	296.171021	152.177216
805.838257	-41.820293	289.749207	162.077896
806.234619	-45.793808	271.469696	180.885071
806.630859	-17.983765	299.627869	184.843552
807.027100	-37.846775	294.688873	183.853958
807.423279	-33.873798	259.609314	205.622269
807.819458	-59.206963	263.563049	207.106277
808.215515	-61.691257	279.375122	177.915756
808.611572	-28.907547	226.488098	152.177216
809.007507	-32.383865	231.432770	200.180984
809.403381	-33.873661	208.684387	184.843552
809.799194	-58.710148	196.317657	139.303604
810.195068	-0.609300	224.015884	136.827728
810.590759	-33.873661	215.114044	133.361053
810.986450	-53.742058	225.993759	153.167328
811.382080	-43.310192	243.792480	165.047714
811.777649	-21.955801	416.573914	267.916412
812.173157	-60.200615	757.816467	433.239105
812.568665	-17.983898	1103.708862	634.999023
812.964050	-23.445469	1183.218628	790.085510
813.359375	-48.277393	1084.672241	738.592834
813.754639	-30.893969	868.569946	628.119568
814.149841	-28.907547	640.988464	491.863068
814.545105	-28.411121	604.622070	393.305084
814.940186	-42.813511	518.541443	375.055298
815.335266	-22.452578	474.227448	321.261627
815.730347	-48.774395	377.615753	335.084778
816.125244	-55.232265	324.811890	281.256927
816.520203	-26.921328	276.904755	230.844360
816.914978	-49.271130	324.811890	213.041382
817.309753	-34.370403	482.107666	304.472992
817.704468	-50.761494	1030.463501	613.867432
818.099182	-17.487564	1822.131714	1074.814819
818.493774	-47.284084	2672.814209	1580.389526
818.888367	-39.833500	3442.148926	2272.947266
819.282898	-36.853367	3946.439209	2579.295166
819.677307	-24.438513	4431.890137	2877.936035
820.071716	-0.609300	3896.308105	2695.227051
820.466003	-40.826820	3073.739502	2309.495117
820.860291	-12.522700	2354.289307	1801.244019
821.254517	-40.330158	1946.792847	1506.149658
821.648743	-10.040493	1559.139038	1321.941528
822.042786	-32.383865	1236.827148	1088.484619
822.436890	-57.219582	902.838318	862.600220
822.830872	-25.431707	613.961304	647.281189
823.224792	-34.370403	467.823853	538.133301
823.618774	-42.813511	395.865082	388.373413
824.012512	-20.466442	283.821442	321.755463
824.406311	-27.914564	265.539673	214.030777
824.799988	-22.452309	256.644348	187.812531
825.193665	-34.867016	207.200424	205.622269
825.587280	-21.459435	238.849060	135.837341
825.980835	-35.860115	175.535782	133.856400
826.374329	-4.580166	179.494629	137.323044
826.767761	-50.761494	192.359634	108.099045
827.161194	-61.691257	204.727432	160.592804
827.554443	-48.277393	152.766388	113.548569
827.947754	-45.297104	218.575943	128.903702
828.340942	-15.004877	198.790985	122.465096
828.734131	-41.323624	156.232086	102.153435
829.127136	-44.303711	137.912491	81.339287
829.520264	-30.397390	161.182159	82.330429
829.913208	-51.258106	208.189651	105.621628
830.306152	-18.480371	184.938019	101.162491
830.699097	-18.976849	153.261444	131.875397
831.091797	-25.928244	133.455460	97.694038
831.484619	-39.833500	146.330322	92.242821
831.877319	1.375965	163.162079	85.800034
832.270020	-37.846775	166.132111	77.869423
832.662537	-28.411121	191.370148	111.566902
833.055054	-24.935175	175.040787	111.566902
833.447510	-10.537169	190.380661	146.235794
833.839966	-51.754860	202.254074	110.575966
834.232361	-31.887136	149.795990	101.162491
834.624634	-41.820293	148.805817	87.286964
835.016907	-21.955801	143.854462	93.233910
835.409058	-30.893969	147.815491	85.800034
835.801208	-42.813511	126.521812	90.756012
836.193298	-38.343414	160.687042	80.347725
836.585327	-50.264473	125.035843	89.764740
836.977295	-38.343414	134.941223	96.702614
837.369202	-57.716660	128.502869	79.356552
837.761047	-16.990829	122.559387	73.408226
838.152832	2.865140	147.815491	104.135277
838.544617	-6.069259	143.359055	103.639961
838.936218	-37.847046	137.912491	72.912384
839.327942	-24.935040	156.726974	77.869423
839.719421	-57.716660	138.407669	87.286964
840.111023	-38.343685	143.854462	102.153435
840.502380	-39.833500	146.825424	86.791367
840.893860	-39.833500	151.776398	87.286964
841.285217	-21.955801	163.657181	81.834793
841.676453	-36.356739	146.330322	117.511719
842.067749	-57.219582	140.388321	129.398941
842.458862	-50.264473	152.766388	114.539322
842.849976	-33.873661	120.578011	32.744785
843.241028	-25.431707	175.040787	82.330429
843.632019	-3.587324	131.969666	107.603493
844.022949	-40.330158	161.182159	107.108063
844.413879	-52.251621	172.566223	94.224854
844.804749	-51.258106	148.310577	71.425232
845.195496	-26.424784	151.281067	64.980209
845.586182	-34.370403	144.349442	91.747131
845.976807	-25.928244	106.706955	68.450813
846.367432	-32.383865	150.786133	92.242821
846.757996	-30.397390	131.474579	78.365227
847.148499	-29.900951	141.873779	106.612633
847.538879	-40.330158	169.596512	86.295631
847.929260	-1.105492	155.242020	90.756012
848.319641	-16.494370	166.132111	116.025536
848.709839	-22.452578	118.101227	79.356552
849.100098	-41.820023	118.101494	124.446136
849.490234	-25.431572	129.493484	59.030319
849.880310	-20.962936	104.725319	111.566902
850.270325	-15.998048	160.687302	55.559296
850.660339	-48.774395	142.369049	54.071579
851.050171	-19.969952	145.339966	108.594475
851.440125	-15.501326	173.061523	106.612633
851.829895	-40.330158	108.688919	75.886841
852.219604	-32.880459	97.788101	93.234047
852.609314	-34.867016	100.761337	96.702614
852.998901	8.820520	71.519608	64.980209
853.388550	-53.245289	102.247757	56.551003
853.778015	-40.330158	99.770226	93.729454
854.167480	-28.411121	103.734283	76.878075
854.556885	-16.990829	109.679741	77.373749
854.946228	-37.846775	140.388199	57.046978
855.335571	-40.826820	108.193359	93.729591
855.724731	-46.290653	130.979080	75.390892
856.113953	-28.907818	124.540695	62.501133
856.503052	6.339106	143.854462	52.088074
856.892151	-50.761223	146.330048	98.189270
857.281067	-37.846642	153.756760	109.585159
857.670105	-15.004877	128.007736	84.808815
858.058960	-82.066147	144.844849	79.356552
858.447754	-45.297375	109.184334	87.286690
858.836609	-23.445469	104.725319	99.675896
859.225281	-57.219582	142.864197	98.684906
859.613892	-22.452309	131.474579	90.260445
860.002502	-21.459435	136.922134	72.912384
860.391052	-60.697578	127.512344	49.608471
860.779541	-52.748386	147.320389	73.903931
861.167969	-50.761223	146.330048	98.684906
861.556335	-9.544091	95.805908	99.675896
861.944702	-46.290653	140.883484	104.135277
862.332947	-50.761223	139.893295	94.720390
862.721069	-38.343414	125.035843	88.278137
863.109253	-16.494370	131.474579	91.747131
863.497314	-23.941988	128.502869	62.501133
863.885376	-46.787365	165.142212	99.180405
864.273315	-41.323353	164.647385	80.843643
864.661255	-47.284084	160.687302	74.895195
865.049072	-36.356739	127.512611	63.988647
865.436890	-69.641670	130.979340	76.878075
865.824707	-15.004877	151.281342	122.465096
866.212280	-39.833500	156.232086	92.242821
866.599915	-41.820293	137.417313	72.416664
866.987488	-38.840061	154.746841	73.903931
867.375061	-35.363632	131.474579	92.738365
867.762451	-12.522700	137.912491	64.484428
868.149841	-45.297104	124.540695	91.747131
868.537170	-49.271130	158.707047	83.321823
868.924438	-41.820293	141.873779	85.304420
869.311707	-21.955801	116.119843	76.382393
869.698853	11.797918	162.172134	104.630730
870.085938	-32.383865	121.073326	83.817444
870.472961	-19.969952	128.007736	61.509670
870.859985	-2.594633	172.071182	108.098778
871.246887	-51.258106	113.642876	119.988251
871.633789	0.383340	188.401352	120.979034
872.020569	-39.336845	157.717026	59.030453
872.407349	-6.069259	160.687302	110.576241
872.794067	-15.004877	138.407669	116.025536
873.180725	-27.914564	155.241760	115.034821
873.567322	-11.529859	188.401352	112.557678
873.953796	-28.410851	153.261444	128.408707
874.340332	-15.005148	199.286072	100.171394
874.726624	-36.853638	189.886032	63.988510
875.113037	4.354143	188.401627	120.483719
875.499329	-35.860115	187.906723	103.144501
875.885559	-40.826820	133.950668	112.557808
876.271729	-77.592903	168.111603	105.621628
876.657898	-36.357010	147.815491	85.304420
877.044006	-12.026278	162.666977	119.988388
877.429932	-37.846775	170.586609	109.585159
877.815918	-15.501326	142.369049	87.782280
878.201782	-33.873798	171.081375	73.407959
878.587585	-63.678658	192.359909	77.869423
878.973389	-49.767731	177.020248	91.747131
879.359070	-58.213333	185.927612	108.594475
879.744751	6.339106	174.051025	108.594475
880.130310	-24.935040	170.586609	147.225998
880.515930	-49.768002	188.401352	112.062294
880.901367	-20.466442	168.111862	79.852348
881.286804	-40.330158	157.221863	79.356552
881.672180	-34.370132	167.121994	89.269165
882.057434	-28.907547	145.339966	107.603493
882.442749	-22.949089	197.307053	100.171394
882.827942	-32.880459	206.211456	141.284378
883.213013	-22.452309	158.707047	107.108063
883.598145	-50.264473	169.101440	96.702881
883.983154	-56.722782	169.101715	127.418060
884.368042	-24.935175	174.050751	100.666878
884.753052	-10.040493	159.697052	52.088074
885.137817	-28.907547	164.152023	104.630730
885.522644	-12.026278	167.617065	81.834793
885.907349	-20.466442	168.111862	103.639961
886.292053	-31.390551	215.114044	133.361053
886.676636	-35.363632	158.212158	78.860893
887.061157	-27.914564	198.296707	89.269432
887.445740	-62.685085	192.359909	88.278137
887.830078	-15.501326	160.192184	115.034546
888.214539	-25.928244	217.586884	99.675896
888.598816	-15.998048	135.436295	105.126183
888.983093	-20.962936	160.192184	118.006927
889.367249	-42.813511	179.494629	120.979164
889.751465	-32.880459	168.606918	111.071503
890.135498	-19.473331	214.619354	117.016106
890.519531	3.857722	174.051025	126.922791
890.903503	-78.090157	212.146393	115.529907
891.287415	-47.284084	215.608734	134.846817
891.671326	3.857722	181.473953	134.351608
892.055054	-9.047829	190.875534	139.798767
892.438843	-56.722782	180.484299	134.846817
892.822510	-32.880459	201.264481	102.153435
893.206116	-30.893969	191.370148	128.903961
893.589661	-23.941988	204.232391	122.960396
893.973206	-32.880459	223.520996	86.295631
894.356628	-21.956072	218.081284	128.408569
894.739990	-11.033444	225.993759	130.389557
895.123352	-36.356739	216.597824	148.216339
895.506592	-60.200615	235.882553	142.769669
895.889832	-55.232536	212.146652	118.997604
896.272949	-32.880459	215.114044	150.691895
896.656067	-44.303711	208.684387	159.107666
897.039063	-30.397390	221.543289	123.455551
897.422058	-45.793808	267.516510	122.960396
897.804993	-44.800404	232.916153	163.562683
898.187866	-67.157043	229.455063	149.206650
898.570618	-21.955801	240.331985	160.592804
898.953369	-33.873661	211.652206	152.176941
899.336121	-25.431707	242.803543	137.817963
899.718689	-22.948820	190.380386	161.582779
900.101257	-41.820023	247.252762	118.502274
900.483704	-30.893969	250.713150	143.760208
900.866211	-64.175789	204.727432	114.539322
901.248596	-50.761494	245.769730	142.274658
901.630920	-31.390551	212.146652	140.789215
902.013184	-40.330158	219.070602	124.941559
902.395386	-27.418011	233.904968	176.431046
902.777588	-13.019128	217.586884	134.846954
903.159668	-45.793941	238.849060	134.351608
903.541687	-24.935175	228.960480	122.960396
903.923645	-5.076527	226.488098	158.612808
904.305603	-16.494370	201.264755	143.265060
904.687500	-45.297104	207.200424	145.245438
905.069275	-21.459435	259.609314	169.007492
905.451050	2.368707	309.999176	174.451828
905.832642	-20.466442	354.920502	211.063080
906.214294	-44.303711	306.542084	224.416092
906.595825	-30.397390	289.255402	170.492111
906.977417	-25.928244	298.640381	233.316315
907.358826	-21.459435	247.252762	191.275970
907.740234	-17.487295	240.826462	149.701736
908.121582	-72.126274	207.695175	169.502289
908.502869	-11.529859	181.968643	143.265060
908.884033	-60.697308	189.885773	137.817963
909.265198	-3.587594	182.463852	110.575966
909.646301	-42.316967	220.059647	105.126457
910.027344	-29.900951	225.499161	130.389832
910.408325	-28.411121	238.848785	160.592804
910.789246	-50.761494	279.375122	125.932121
911.170105	-38.840195	297.652313	183.854218
911.550903	-37.846775	321.355896	204.138229
911.931641	-28.907547	320.862305	198.696808
912.312317	-29.900951	337.646851	226.393967
912.692932	-38.840061	330.735779	228.371780
913.073547	-25.928244	378.109161	245.181198
913.453979	-64.672653	390.933044	206.117035
913.834473	-35.363632	330.242279	216.009003
914.214783	-1.105492	312.468231	214.030777
914.595154	-17.487295	368.242554	210.073898
914.975464	-30.397390	356.400665	249.135834
915.355652	-68.150826	392.412689	245.675629
915.735840	-48.774395	346.530945	242.215515
916.115845	-57.219852	343.569519	241.226837
916.495972	-45.297104	403.754639	214.030777
916.875854	-44.800404	300.615906	256.055908
917.255859	-15.997778	338.140289	206.117035
917.635620	-46.787365	340.114838	242.215515
918.015503	-47.780937	325.305450	227.382889
918.395203	-44.800404	333.204315	224.415817
918.774902	-31.390551	292.219116	176.431046
919.154480	-56.226120	320.862061	199.685898
919.534058	-63.678658	322.343567	208.589966
919.913574	-20.962936	334.191284	188.801804
920.292969	-39.833500	324.811890	212.546936
920.672363	-45.793808	311.974579	152.176941
921.051636	-0.609300	296.170746	167.027496
921.430969	-28.411121	244.781387	177.915756
921.810181	-35.860115	188.401352	140.293930
922.189331	-39.336845	248.735504	181.380020
922.568420	-28.907547	237.365540	140.293930
922.947388	-27.914564	218.575943	147.225998
923.326416	-42.813511	178.504944	133.856262
923.705261	-9.544091	157.717026	78.860893
924.084106	-19.969816	187.411545	75.886841
924.462891	-20.466442	143.359329	110.080566
924.841675	-49.767731	176.030518	64.980209
925.220337	-33.873661	143.359329	65.971756
925.598938	-34.370132	143.359329	82.826057
925.977478	-35.860115	137.912491	78.365227
926.355957	-31.390551	119.587364	84.808815
926.734436	-33.377193	109.679741	69.937904
927.112732	-28.411121	103.238823	51.096298
927.491089	-56.226120	131.969666	34.233036
927.869324	-23.941988	104.229874	41.177090
928.247559	-47.284084	80.442352	41.177090
928.625671	-48.774395	119.092171	57.046978
929.003723	-39.833500	112.156601	45.145027
929.381775	-12.026278	85.398773	40.681110
929.759705	-48.774395	81.433777	36.216999
930.137634	-26.921328	93.328247	27.783855
930.515381	-23.941854	72.511169	38.201164
930.893250	-54.735619	72.511169	0.491728
931.270935	-24.438782	75.981209	44.153133
931.648560	-21.459435	97.788101	32.248737
932.026123	-55.729324	79.946701	35.720982
932.403687	-47.284084	98.283875	27.287634
932.781250	-17.487295	73.998299	39.689281
933.158630	-17.983765	47.223442	52.584091
933.536011	-13.515695	97.292595	45.640831
933.913208	-18.976849	94.814995	31.752417
934.290527	-51.258106	71.023880	29.768305
934.667664	-29.900951	59.124844	33.737003
935.044800	-32.383865	58.133053	51.096298
935.421814	-27.418011	70.032280	29.272232
935.798889	-12.522700	66.562035	25.303371
936.175842	-20.466442	98.779236	55.063576
936.552673	-71.629478	90.354782	66.963417
936.929504	-40.330158	85.894379	25.799477
937.306274	-43.310463	46.727379	17.364717
937.683044	-38.343414	65.074593	49.608471
938.059570	-44.800404	60.612301	23.318773
938.436218	-19.969816	107.202377	59.030453
938.812744	-42.316967	103.238823	33.240692
939.189148	-70.138588	57.637215	16.868542
939.565613	1.872406	46.727512	26.791540
939.941956	-9.047829	17.955482	56.055153
940.318237	-3.090976	28.870461	52.584091
940.694458	-58.710148	15.474450	19.845533
941.070557	-82.563164	22.917097	-6.457366
941.446655	-30.893969	26.390158	-2.486239
941.822693	0.879790	-7.355490	-21.350872
942.198669	-29.900682	55.653694	-38.731735
942.574646	-73.617218	50.694809	20.837967
942.950562	-60.697578	2.571573	-4.471769
943.326294	-16.494370	3.564296	-2.982852
943.702026	-18.977119	14.978394	11.410197
944.077698	-40.826820	30.359079	8.432646
944.453369	-51.754860	-12.319784	-26.812754
944.828918	-45.297375	8.527118	-16.385950
945.204468	-52.251888	61.603786	13.891264
945.579834	-8.551435	24.405596	21.334110
945.955261	-33.377060	16.467091	-47.175606
946.330627	-55.232536	33.335125	-46.182182
946.705811	-6.565767	9.023364	14.387465
947.081055	-59.703922	30.855009	22.326382
947.456177	-47.284084	4.060583	-3.975415
947.831238	-3.090976	-3.880923	-17.378874
948.206238	-20.466171	36.311562	28.280210
948.581238	-21.955801	-2.391750	-31.778690
948.956116	-52.748520	0.586483	-6.953743
949.330933	-53.245152	3.068004	-0.997102
949.705811	-28.907818	34.823364	-6.457366
950.080505	-35.860115	50.198914	8.928758
950.455139	2.368707	39.783703	-21.351141
950.829773	-28.410851	25.397818	-3.479064
951.204346	-11.033444	6.045826	23.318773
951.578735	-58.710148	15.474450	3.966104
951.953186	-38.343414	27.382343	-0.501046
952.327515	-90.019081	-16.787897	-30.288946
952.701843	-37.846775	0.089896	26.791540
953.076172	-17.487295	-23.739033	40.185402
953.450195	-25.928244	23.413221	16.868677
953.824341	-27.417742	16.963135	9.921373
954.198486	-37.846775	-22.746002	25.799477
954.572449	-11.529859	37.799591	15.876177
954.946350	-50.761223	15.970637	25.303371
955.320251	-44.800404	34.823364	-10.925035
955.694092	-30.397390	21.924969	20.341955
956.067871	-6.069259	13.489658	-10.925035
956.441589	-29.900951	39.287716	1.484351
956.815125	-35.860115	-28.704575	-4.968129
957.188721	-17.983765	-20.759991	10.913972
957.562256	-27.418011	13.985727	-8.443030
957.935730	-31.390551	21.428831	0.988042
958.309021	-28.411121	7.534479	-17.378874
958.682373	-15.501595	18.947811	-13.407281
959.055664	-40.826958	16.466822	0.988042
959.428955	-15.501595	52.678493	-12.414424
959.802063	12.294136	42.759815	-9.932086
960.175110	-47.780804	16.466822	-38.731735
960.548157	-38.343685	24.901707	-28.799376
960.921143	-44.303711	24.405596	-1.493702
961.294128	-25.431707	25.893921	1.484486
961.666809	-50.264473	15.474450	-17.378874
962.039612	-9.047559	44.247547	1.484351
962.412415	-31.390551	-14.305510	-1.493702
962.785095	-16.494370	12.001021	2.973388
963.157715	-35.860115	12.001021	0.491728
963.530151	-1.105492	61.604057	-27.309572
963.902649	-26.921328	21.428831	-5.960725
964.275146	-7.558525	20.932419	26.791809
964.647522	-42.316967	42.759815	2.973388
965.019714	-59.206963	23.413492	2.973388
965.392029	-36.356739	21.428831	13.891129
965.764160	-19.473331	-0.406290	42.665401
966.136292	-16.494370	13.489658	-8.939288
966.508423	-54.735619	13.489658	8.928892
966.880371	-47.284218	-27.711594	-62.079731
967.252319	-33.873661	12.497237	-1.493702
967.624207	-54.735619	-10.333989	-6.953743
967.996094	-42.813782	-3.384438	-4.968129
968.367737	-45.297104	-13.809207	-0.004589
968.739441	-39.336845	2.571573	-25.323002
969.111084	-36.356739	-1.895277	-15.889495
969.482666	-41.323353	22.917097	-1.989901
969.854248	-48.277664	22.917097	-0.004589
970.225586	-12.026278	0.586213	-36.745049
970.596985	-70.138588	7.534749	5.454809
970.968323	-71.629478	-1.895277	15.379990
971.339661	-11.529859	-22.249357	-8.939288
971.710754	-28.411121	-9.341185	-14.400019
972.081909	-26.921328	12.496967	-25.819807
972.453064	-20.466442	30.358809	0.988311
972.824097	6.835370	29.366671	-14.400019
973.194946	-39.336845	60.612301	-7.946372
973.565918	-32.383865	21.924969	2.973388
973.936768	-40.330158	22.917097	10.417607
974.307556	-50.264744	2.571573	46.137035
974.678284	-16.494370	6.045556	-22.343878
975.048828	-19.473331	2.571843	12.402502
975.419495	-40.826958	-1.895412	-25.323271
975.790039	-49.271130	1.578969	-39.228386
976.160522	-31.887272	5.549285	9.921373
976.530884	-41.820293	-8.348262	-0.004589
976.901245	-8.551165	-22.249357	-12.414289
977.271606	-26.921328	-47.577629	-19.365042
977.641846	2.368707	-7.851874	-11.917868
978.012024	-37.846775	12.000886	-39.725170
978.382019	-26.921463	13.985727	-37.241680
978.752136	-27.418011	-5.866230	-0.004589
979.122131	-31.390551	-33.174068	-1.989901
979.492065	-43.310463	-19.766739	-25.323271
979.861877	-56.226120	22.420832	-12.910581
980.231689	-19.969952	9.023364	-19.861526
980.601440	-20.962936	7.534749	-20.358015
980.971191	-24.438782	34.327469	4.462388
981.340820	-63.181934	26.390158	-30.785522
981.710266	-52.251888	-16.787897	-23.337038
982.079773	-56.722782	-0.406290	-37.241680
982.449280	-38.840061	-44.597378	11.906420
982.818604	-19.969952	1.578969	15.876177
983.187866	-29.900682	17.955482	-23.337038
983.557129	-29.404383	13.985727	13.395195
983.926331	-62.188236	-12.816074	-3.975415
984.295471	-41.820293	26.886253	-27.806124
984.664612	-32.880188	-6.859246	-17.875477
985.033569	-17.983898	12.993450	11.906420
985.402527	-41.323624	-8.844788	-15.393179
985.771362	-42.813511	-0.406290	-16.882410
986.140259	-45.297104	-15.298399	-13.903715
986.508911	-5.076527	29.862743	-0.004589
986.877625	-7.062144	-15.298399	-2.486239
987.246277	-72.126274	-5.369998	-47.175743
987.614929	-40.330158	13.985727	-14.896461
987.983459	-28.411121	-17.780964	-14.896731
988.351807	-54.238834	-13.809207	-28.799105
988.720215	-30.397390	8.527118	-53.136803
989.088623	-41.323353	-38.140411	21.830248
989.456909	-32.880459	-19.766739	-3.975415
989.825012	-33.873798	11.008440	-34.261951
990.193115	-77.592903	-30.690720	-27.806259
990.561279	-42.316967	5.549285	-37.241680
990.929321	-33.377060	2.571573	-13.903715
991.297302	-21.955801	-7.851874	-16.882410
991.665100	-61.194416	-19.766739	-16.882410
992.033020	-36.853638	7.038490	-21.350872
992.400818	-40.330292	-5.866230	15.876177
992.768494	-51.754860	-29.697706	-19.365042
993.136047	-35.860115	9.023364	4.462388
993.503723	-59.206963	-15.298399	-29.792374
993.871277	-37.846775	16.963001	-26.316345
994.238770	-70.635368	-5.369998	-24.330214
994.606140	-35.860115	-11.326675	-67.545418
994.973450	-22.949089	9.519605	-16.882681
995.340759	-43.310463	-13.808937	-20.358015
995.708008	-60.200748	-14.305510	-33.765076
996.075195	-22.948820	17.459311	-10.428626
996.442200	-13.515425	7.534479	-14.896731
996.809265	-35.860115	-1.895412	-12.414424
997.176270	-1.105762	-23.739033	-30.288946
997.543152	-52.748386	-4.873635	5.951350
997.910095	-29.404112	-5.369998	-52.640034
998.276733	-48.774395	-39.630219	7.936260
998.643494	-32.383865	-8.844653	2.477092
999.010193	-14.508569	-15.794984	3.469681
999.376831	-38.343414	-5.369998	0.988042
999.743286	-43.807152	12.497237	-13.903715
1000.109802	-32.383865	-21.752853	-41.711826
1000.476257	-32.880459	1.578834	6.447618
1000.842651	-58.213333	21.428560	3.965834
1001.208923	-58.213333	-24.235554	-27.806124
1001.575134	-37.350140	-17.780828	-30.288946
1001.941284	-10.040493	-10.333989	-22.343878
1002.307434	-54.238834	-18.773911	11.906420
1002.673523	-8.054775	-24.235689	-23.833555
1003.039429	-52.748520	6.045826	16.868542
1003.405334	-30.893969	-52.545326	-0.500776
1003.771179	-38.840061	-52.545464	-18.371950
1004.137024	-62.187962	-10.830398	-26.316345
1004.502808	-45.793808	-11.823362	-31.282240
1004.868408	-22.452309	13.489658	-10.925035
1005.234009	-26.424784	-19.270390	0.491728
1005.599609	-19.473331	-23.739033	-36.248554
1005.965149	6.835370	-18.773911	-43.201996
1006.330444	-23.942259	-32.180878	-47.672462
1006.695862	-38.343414	9.519605	-30.785793
1007.061218	-37.846775	11.504664	-52.640034
1007.426453	-57.716660	-7.851874	-22.840523
1007.791626	-30.397390	-13.808937	-38.235092
1008.156677	-43.310192	9.519875	-34.758564
1008.521729	-18.976849	1.578969	-42.208366
1008.886780	-27.417742	-6.362871	-41.711826
1009.251709	-28.411121	-23.739033	-3.975280
1009.616577	0.879790	-26.718225	-29.792374
1009.981384	-34.867016	-19.270390	-39.725037
1010.346130	-42.316967	-21.256351	-22.343878
1010.710754	-30.893969	-14.305510	-15.889495
1011.075439	-12.026278	-9.341185	-56.614559
1011.439941	-35.363632	-4.873635	-26.316345
1011.804443	6.835370	-13.808937	12.402502
1012.168884	-48.774124	-20.263498	-26.316345
1012.533325	-24.935175	20.436409	-0.004589
1012.897522	-11.033309	-23.739033	-20.358015
1013.261780	-31.887136	11.504664	-33.268608
1013.626038	-21.459435	25.397818	2.973388
1013.990112	-23.445469	-48.571350	-9.932356
1014.354187	-30.893969	30.359079	-5.960995
1014.718140	-32.880459	13.489658	-0.997372
1015.082153	-22.949089	10.015977	-3.478929
1015.446045	-63.181934	-2.391615	6.943746
1015.809937	-14.508569	-7.355490	2.973523
1016.173523	-52.251621	-2.888092	-4.968129
1016.537170	-19.969816	-21.752853	-1.493432
1016.900879	-10.536899	-0.902615	-4.968129
1017.264404	-31.887272	12.993450	-42.208366
1017.627991	-34.370403	-32.180878	-16.882410
1017.991333	-37.350140	-29.201138	-8.442760
1018.354675	-14.508569	-47.081047	-29.295940
1018.718018	-85.545631	-6.362601	-6.953743
1019.081299	-26.921328	-33.174068	-27.806124
1019.444397	-27.418011	-49.067951	-3.478929
1019.807495	-39.336845	-24.732080	-21.351141
1020.170593	-31.390551	2.571843	-50.155991
1020.533691	-49.767731	-2.888092	-15.393179
1020.896606	-23.941988	-27.711594	-26.812754
1021.259460	-21.459435	-8.348532	-7.946642
1021.622253	-24.935175	-4.873635	-26.812754
1021.985046	-78.586868	-27.214773	-33.765076
1022.347778	-43.310192	-34.167141	-31.282240
1022.710327	-37.846775	-25.228746	1.484486
1023.072876	-34.370403	-32.677471	-23.833826
1023.435364	-55.729324	-7.355490	-25.819807
1023.797852	-37.846775	-35.160366	-29.792374
1024.160278	-3.090976	-40.127144	-34.758564
1024.522461	2.865140	-30.690720	-44.691933
1024.884766	-26.424784	-5.866230	-40.221695
1025.246948	-42.813511	-42.113811	-1.989901
1025.609131	-38.343414	-36.154011	-36.248283
1025.971069	-36.853638	-2.888092	-38.731602
1026.333130	-26.921463	-3.880923	-11.917868
1026.694946	-33.377060	-2.888092	-60.092251
1027.056885	-3.090976	-10.830398	-20.854509
1027.418823	-22.948820	-1.398944	-22.344149
1027.780396	-18.480371	-31.684288	-23.833826
1028.142090	-72.623207	-20.759991	-77.484367
1028.503784	-27.914564	-1.895412	-31.282104
1028.865479	-45.793808	-32.677471	-34.758564
1029.226807	6.339106	-29.697706	-16.882410
1029.588135	-51.754860	-16.291304	-2.486239
1029.949707	-31.390821	-40.127144	-49.659252
1030.310913	-14.508569	-48.571350	3.469681
1030.672241	-21.955801	-36.153740	-30.288946
1031.033325	-53.245289	7.038220	-14.400019
1031.394531	-19.473331	5.053280	-21.847372
1031.755493	-58.213333	11.008440	-50.155991
1032.116577	-44.303711	-64.469284	-15.889495
1032.477417	-50.264473	-23.242516	-4.471769
1032.838257	-61.691257	-47.577900	-22.343878
1033.199097	-32.383865	-10.333989	-17.875477
1033.559937	-61.691257	-17.284496	-0.004589
1033.920654	-22.948820	-7.355490	-18.868425
1034.281128	-48.277393	-55.526257	-30.288946
1034.641724	-20.962936	-24.235554	-15.393179
1035.002197	-51.258106	-44.597378	-35.751663
1035.362671	-34.370132	-10.830533	-15.889495
1035.722900	-50.761494	-52.545326	-13.407281
1036.083252	-41.820293	-31.187569	5.951350
1036.443481	-32.383865	-75.401756	-41.711960
1036.803711	-15.004877	-36.154011	-23.337038
1037.163940	-34.370403	-28.704575	-20.358015
1037.523804	-35.363632	22.420967	-36.248554
1037.883789	-30.893969	-29.201138	-49.659252
1038.243774	-15.998048	-42.113811	-51.646378
1038.603638	-40.330158	-31.187569	-31.778690
1038.963257	-13.515425	-65.960037	-42.208366
1039.323120	-41.820293	-33.670536	-25.819807
1039.682861	-65.169250	-19.270390	-28.799376
>>>>>End Processed Spectral Data<<<<<
