Jaz Data File
++++++++++++++++++++++++++++++++++++
Date: Wed Dec 03 21:34:18 2014
User: jaz
Dark Spectrum Present: Yes
Reference Spectrum Present: Yes
Processed Spectrum Present: No
Spectrometers: JAZA2310
Integration Time (usec): 36000 (JAZA2310)
Spectra Averaged: 1 (JAZA2310)
Boxcar Smoothing: 0 (JAZA2310)
Correct for Electrical Dark: Yes (JAZA2310)
Strobe/Lamp Enabled: No (JAZA2310)
Correct for Detector Non-linearity: Yes (JAZA2310)
Correct for Stray Light: No (JAZA2310)
Number of Pixels in Processed Spectrum: 2048
>>>>>Begin Processed Spectral Data<<<<<
W	D	R	S
188.301102	0.000000	0.000000	0.000000
188.764923	0.000000	0.000000	0.000000
189.228699	-50.851192	-7.558390	41.865677
189.692459	-18.570162	-39.833500	-94.689041
190.156158	11.212086	-62.188099	-10.235976
190.619812	-11.123223	-57.219715	9.617720
191.083435	-1.195390	-15.005013	-37.545578
191.547043	-3.677091	81.726685	-44.995869
192.010590	6.249354	4.850288	-72.321831
192.474091	28.578102	-0.112843	-42.512421
192.937561	110.378319	17.256495	49.305153
193.401001	38.499279	37.100838	-5.271859
193.864410	-58.303181	22.218170	49.305153
194.327759	13.693295	17.256495	-37.545578
194.791077	78.167336	37.100838	106.309471
195.254349	40.979210	42.060989	4.654989
195.717575	-3.677091	22.218170	12.098996
196.180786	-1.195390	7.331765	14.580169
196.643951	-38.433235	-12.522700	-15.200378
197.107071	16.174267	59.417999	-25.130573
197.570145	-8.641074	-67.156906	2.173399
198.033203	-58.303181	-32.383865	49.305153
198.496216	13.693295	-29.900818	-77.291634
198.959167	-1.195390	-24.935040	-2.789957
199.422089	-28.500927	22.218170	12.098996
199.884979	8.730772	22.218170	-10.235976
200.347855	-26.018044	12.294271	-5.271859
200.810654	-65.756126	-0.112843	44.345608
201.273422	-55.819035	-19.969816	-30.096231
201.736160	-6.159030	4.850288	9.617720
202.198853	-40.916641	22.218170	-112.091675
202.661514	-8.641074	-17.487295	19.542067
203.124130	3.767967	-54.735619	-49.963345
203.586700	3.767967	-49.767868	-57.415226
204.049240	-55.819035	-92.007721	-25.130573
204.511734	-6.159030	-89.522133	-92.203339
204.974197	-58.303181	-84.551277	-109.605232
205.436615	18.655268	-82.066147	-25.130573
205.899002	-73.210014	-94.493279	-35.062447
206.361343	-30.983778	-24.935040	-102.146652
206.823654	-23.535265	37.100838	-30.096231
207.285919	-90.606194	-7.558390	36.905643
207.748123	-26.018044	-34.866882	-47.479553
208.210327	-110.493988	-141.741119	-87.232254
208.672485	-18.570162	-34.866882	-30.096231
209.134583	8.730772	-72.126274	-0.308294
209.596649	-33.466869	-39.833500	-0.308294
210.058670	-40.916641	-5.076527	-127.012367
210.520676	-11.123223	-52.251621	-102.146652
210.982635	-55.819035	-44.800404	-59.899437
211.444534	-70.725372	2.368707	-127.012367
211.906403	-65.756126	-32.383865	-109.605232
212.368240	-58.303181	-17.487295	-57.415226
212.830048	-16.087700	-72.126274	-2.789957
213.291779	-40.916641	-32.383865	29.464754
213.753494	-115.466934	-49.767868	-92.203339
214.215179	6.249354	-59.703789	-52.447247
214.676819	-48.367363	-87.036652	-35.062447
215.138412	-18.570162	-0.112843	-49.963345
215.599960	-48.367363	-12.522700	-54.931114
216.061493	-35.950069	14.775435	-35.062447
216.522949	-53.335133	32.140408	-30.096231
216.984406	-88.120804	-89.522133	4.654989
217.445801	-63.271660	-34.866882	29.464754
217.907166	-75.694908	-89.522133	-37.545578
218.368484	-45.883778	-74.611115	2.173399
218.829773	-65.756126	-57.219715	-0.308294
219.291031	-85.635391	-104.436981	-25.130573
219.752228	-8.641074	-2.594633	-5.271859
220.213379	-40.916641	-126.816483	-32.579288
220.674500	6.249354	-77.095932	-44.995869
221.135574	-55.819035	-109.409546	-82.261734
221.596634	-11.123223	-22.452444	-35.062447
222.057648	70.731590	-52.251621	-49.963345
222.518600	6.249354	-79.580978	-30.096231
222.979553	31.058451	-24.935040	44.345608
223.440430	3.767967	-64.672516	-64.868050
223.901276	-55.819035	-39.833500	-94.689041
224.362076	23.616825	-62.188099	-40.028950
224.822845	-33.466869	-52.251621	-62.383625
225.283569	16.174267	-57.219715	49.305153
225.744278	-167.709503	-79.580978	7.136339
226.204910	-48.367363	-44.800404	-22.647833
226.665512	-75.694908	-89.522133	-32.579288
227.126114	16.174267	-42.316833	-64.868050
227.586639	-3.677091	-17.487295	9.617720
228.047119	-16.087700	-92.007721	-10.235976
228.507568	-40.916641	-19.969816	-37.545578
228.967972	26.097515	-99.464981	-27.613283
229.428345	-18.570162	-84.551277	-22.647833
229.888687	8.730772	-139.253387	-7.753866
230.348984	3.767967	17.256495	7.136339
230.809219	-85.635391	-17.487295	-42.512421
231.269440	-50.851192	-17.487295	-77.291634
231.729614	-23.535265	39.580967	-114.578102
232.189758	-70.725372	-5.076527	-112.091675
232.649841	-58.303181	-42.316833	-25.130573
233.109894	-95.577576	27.179428	17.061102
233.569901	-70.725372	-2.594633	22.022928
234.029892	-13.605341	-19.969816	14.580169
234.489822	-40.916641	4.850288	22.022928
234.949707	21.136166	-17.487295	-5.271859
235.409561	-38.433235	-89.522133	19.542067
235.869385	-16.087700	-59.703789	-20.165197
236.329163	-28.500927	-49.767868	-7.753866
236.788895	-90.606194	-44.800404	-0.308294
237.248581	-23.535265	42.060989	-20.165197
237.708237	-13.605341	-37.350140	12.098996
238.167847	63.294918	-47.284084	-10.235976
238.627441	21.136166	-12.522700	2.173399
239.086960	33.538830	-57.219715	-20.165197
239.546463	-6.159030	-101.950867	14.580169
240.005920	-30.983778	-101.950867	-42.512421
240.465332	-13.605341	-32.383865	-44.995869
240.924698	45.939041	-94.493279	-59.899437
241.384033	36.019108	24.698919	-15.200378
241.843338	-38.433235	-101.950867	-5.271859
242.302597	-65.756126	-67.156906	-82.261734
242.761810	-21.052593	-77.095932	-32.579288
243.220993	6.249354	-79.580978	-22.647833
243.680115	-8.641074	-15.005013	-22.647833
244.139221	-137.850861	-17.487295	-27.613283
244.598282	-70.725372	-39.833500	-17.682802
245.057297	58.336536	-44.800404	-64.868050
245.516266	-45.883778	-44.800404	-40.028950
245.975189	-135.363297	-82.066147	-22.647833
246.434082	-50.851192	-19.969816	-47.479553
246.892944	-3.677091	-24.935040	-22.647833
247.351761	-33.466869	-77.095932	-64.868050
247.810516	-78.179901	2.368707	-67.352585
248.269272	-3.677091	-42.316833	-62.383625
248.727951	-45.883778	-47.284084	-10.235976
249.186600	-55.819035	-32.383865	-22.647833
249.645218	-70.725372	-7.558390	-52.447247
250.103790	-93.091835	-19.969816	-44.995869
250.562317	-28.500927	-10.040493	-57.415226
251.020813	-38.433235	-77.095932	-27.613283
251.479279	-28.500927	-52.251621	-49.963345
251.937668	45.939041	-59.703789	34.425407
252.396057	-1.195390	-34.866882	41.865677
252.854385	-83.150078	-62.188099	-20.165197
253.312683	-63.271660	37.100838	12.098996
253.770920	-48.367363	-34.866882	49.305153
254.229126	-28.500927	-49.767868	24.503550
254.687302	-21.052593	-37.350140	-12.718058
255.145432	-18.570162	-106.923210	-74.806679
255.603500	-33.466869	32.140408	-40.028950
256.061584	6.249354	-62.188099	-57.415226
256.519592	-53.335133	42.060989	-37.545578
256.977570	-45.883778	-54.735619	-40.028950
257.435455	28.578102	-82.066147	-44.995869
257.893372	-60.787434	-15.005013	-40.028950
258.351196	-53.335133	-89.522133	-7.753866
258.808990	-48.367363	-10.040493	-7.753866
259.266754	-70.725372	-111.895851	-22.647833
259.724487	-55.819035	-101.950867	9.617720
260.182190	-43.400158	-131.790985	-47.479553
260.639832	-28.500927	-74.611115	-25.130573
261.097443	-28.500927	-59.703789	-82.261734
261.554993	-75.694908	-37.350140	-62.383625
262.012512	-40.916641	2.368707	2.173399
262.469971	-13.605341	-54.735619	-25.130573
262.927429	-6.159030	-12.522700	-15.200378
263.384827	-11.123223	-39.833500	-54.931114
263.842194	-11.123223	-42.316833	-69.837219
264.299530	-85.635391	-0.112843	-27.613283
264.756805	-60.787434	-52.251621	-89.717743
265.214050	-75.694908	-39.833500	-49.963345
265.671234	-58.303181	-24.935040	-25.130573
266.128387	-63.271660	-22.452444	-114.578102
266.585510	-23.535265	2.368707	-64.868050
267.042572	-8.641074	24.698919	-17.682802
267.499573	-8.641074	-10.040493	-10.235976
267.956604	21.136166	-37.350140	-7.753866
268.413574	6.249354	-54.735619	-92.203339
268.870483	-48.367363	7.331765	31.945198
269.327362	-63.271660	-62.188099	-49.963345
269.784180	-75.694908	-7.558390	-32.579288
270.240936	-75.694908	-72.126274	-20.165197
270.697693	-40.916641	-67.156906	-79.776566
271.154419	-70.725372	-42.316833	7.136339
271.611053	-33.466869	-52.251621	51.784637
272.067688	-147.802048	-32.383865	12.098996
272.524292	-58.303181	9.813137	46.825432
272.980835	-45.883778	-77.095932	39.385780
273.437347	-78.179901	-49.767868	9.617720
273.893799	3.767967	-32.383865	-57.415226
274.350250	6.249354	19.737318	-7.753866
274.806610	-40.916641	4.850288	4.654989
275.262939	-11.123223	-94.493279	-52.447247
275.719238	-45.883778	-37.350140	-47.479553
276.175507	-53.335133	-42.316833	-35.062447
276.631714	-33.466869	-62.188099	-30.096231
277.087891	-33.466869	-2.594633	-2.789957
277.544067	-45.883778	-54.735619	34.425407
278.000122	-100.549232	-84.551277	-7.753866
278.456177	-26.018044	-119.355682	-62.383625
278.912201	8.730772	-12.522700	-5.271859
279.368164	-70.725372	-99.464981	-47.479553
279.824097	-120.440453	-67.156906	-47.479553
280.279968	-78.179901	-92.007721	19.542067
280.735840	-55.819035	-22.452444	-74.806679
281.191620	-11.123223	12.294271	-2.789957
281.647400	-28.500927	-52.251621	-20.165197
282.103149	-65.756126	-2.594633	44.345608
282.558838	-83.150078	-54.735619	-59.899437
283.014465	-3.677091	29.659971	-49.963345
283.470062	6.249354	-62.188099	-59.899437
283.925629	-18.570162	-47.284084	-89.717743
284.381134	-68.240692	-24.935040	17.061102
284.836639	-53.335133	-111.895851	-52.447247
285.292053	-11.123223	17.256495	-82.261734
285.747467	23.616825	-47.284084	-69.837219
286.202820	-63.271660	27.179428	-57.415226
286.658142	-50.851192	-0.112843	-0.308294
287.113434	-78.179901	-17.487295	-69.837219
287.568634	-88.120804	24.698919	-89.717743
288.023804	-78.179901	-5.076527	-104.632652
288.478973	-6.159030	-22.452444	-30.096231
288.934113	-85.635391	-64.672516	-44.995869
289.389130	-83.150078	-69.641533	-89.717743
289.844208	-55.819035	-27.417875	-17.682802
290.299164	-38.433235	-44.800404	-82.261734
290.754089	-122.927231	-79.580978	2.173399
291.208984	-28.500927	-19.969816	-10.235976
291.663879	-1.195390	-54.735619	61.701946
292.118683	53.377872	-87.036652	-5.271859
292.573456	6.249354	19.737318	-2.789957
293.028198	-58.303181	-57.219715	-49.963345
293.482849	33.538830	-0.112843	-37.545578
293.937561	8.730772	19.737318	-104.632652
294.392151	43.459179	-89.522133	-62.383625
294.846741	-40.916641	-24.935040	-42.512421
295.301239	28.578102	-49.767868	-32.579288
295.755737	-33.466869	-79.580978	-42.512421
296.210175	-48.367363	-32.383865	-40.028950
296.664581	-18.570162	-87.036652	-25.130573
297.118958	-117.953644	-49.767868	-57.415226
297.573242	-45.883778	-15.005013	-17.682802
298.027557	1.286340	-77.095932	-92.203339
298.481812	21.136166	-24.935040	-57.415226
298.935974	38.499279	-104.436981	-47.479553
299.390137	-78.179901	-44.800404	-79.776566
299.844238	-105.521469	9.813137	-12.718058
300.298340	-35.950069	-10.040493	-40.028950
300.752350	-78.179901	-15.005013	-37.545578
301.206360	-8.641074	-24.935040	-2.789957
301.660278	-35.950069	-96.979080	-79.776566
302.114197	-6.159030	-19.969816	-54.931114
302.568054	-35.950069	-96.979080	-77.291634
303.021881	-23.535265	-74.611115	2.173399
303.475677	3.767967	-2.594633	-12.718058
303.929413	-13.605341	-44.800404	12.098996
304.383118	-1.195390	-52.251621	24.503550
304.836761	-28.500927	-99.464981	-35.062447
305.290375	-28.500927	-92.007721	-57.415226
305.743958	-43.400158	-19.969816	-17.682802
306.197510	-33.466869	22.218170	-40.028950
306.650970	-26.018044	12.294271	-35.062447
307.104431	-30.983778	-22.452444	-40.028950
307.557800	26.097515	-101.950867	-84.747009
308.011169	-55.819035	-84.551277	-84.747009
308.464508	3.767967	-22.452444	-37.545578
308.917755	-55.819035	-77.095932	-17.682802
309.371063	-70.725372	-34.866882	-72.321831
309.824219	-3.677091	-84.551277	-79.776566
310.277374	-65.756126	-99.464981	-84.747009
310.730499	13.693295	24.698919	-12.718058
311.183563	-3.677091	-52.251621	-40.028950
311.636597	11.212086	-32.383865	-20.165197
312.089569	-3.677091	-57.219715	41.865677
312.542511	-1.195390	-12.522700	-42.512421
312.995422	-21.052593	-52.251621	-32.579288
313.448273	-40.916641	-69.641533	-59.899437
313.901093	28.578102	-54.735619	-79.776566
314.353882	33.538830	-34.866882	-35.062447
314.806580	-80.664864	19.737318	-42.512421
315.259308	-70.725372	17.256495	-82.261734
315.711975	11.212086	-2.594633	-72.321831
316.164581	-70.725372	-77.095932	39.385780
316.617126	36.019108	-24.935040	-62.383625
317.069672	3.767967	-44.800404	-17.682802
317.522156	50.898319	-62.188099	12.098996
317.974579	-6.159030	-32.383865	7.136339
318.427002	1.286340	24.698919	-57.415226
318.879333	-30.983778	-57.219715	-62.383625
319.331665	3.767967	-57.219715	-42.512421
319.783936	-45.883778	-5.076527	4.654989
320.236176	-68.240692	-7.558390	7.136339
320.688354	18.655268	-29.900818	-32.579288
321.140503	-68.240692	-37.350140	22.022928
321.592651	-28.500927	-0.112843	-42.512421
322.044647	3.767967	-111.895851	-72.321831
322.496704	-53.335133	-37.350140	-62.383625
322.948639	-30.983778	12.294271	-72.321831
323.400604	-35.950069	-34.866882	-74.806679
323.852509	-18.570162	-64.672516	-15.200378
324.304352	-28.500927	-37.350140	-52.447247
324.756165	-16.087700	-34.866882	-69.837219
325.207916	-33.466869	-47.284084	-22.647833
325.659668	-13.605341	-2.594633	14.580169
326.111328	-16.087700	-64.672516	-32.579288
326.562988	-95.577576	-12.522700	26.984201
327.014557	-1.195390	7.331765	-30.096231
327.466156	23.616825	-109.409546	-54.931114
327.917664	-63.271660	-124.329529	-92.203339
328.369110	-85.635391	-15.005013	-54.931114
328.820557	80.645767	-7.558390	-22.647833
329.271942	-26.018044	2.368707	-62.383625
329.723297	55.857323	-24.935040	-94.689041
330.174561	-26.018044	-64.672516	-77.291634
330.625854	-30.983778	4.850288	-5.271859
331.077026	8.730772	34.620743	51.784637
331.528229	-60.787434	-17.487295	-17.682802
331.979370	-3.677091	-19.969816	-2.789957
332.430450	-13.605341	-42.316833	-30.096231
332.881500	-63.271660	12.294271	-62.383625
333.332489	-78.179901	-27.417875	-15.200378
333.783478	-8.641074	-37.350140	19.542067
334.234406	-28.500927	-52.251621	-17.682802
334.685303	-43.400158	-72.126274	-69.837219
335.136078	-38.433235	-64.672516	-139.449173
335.586914	-50.851192	-74.611115	-40.028950
336.037659	13.693295	44.540775	4.654989
336.488342	-90.606194	44.540775	-72.321831
336.939026	40.979210	-19.969816	-62.383625
337.389648	40.979210	-44.800404	-52.447247
337.840240	13.693295	69.334038	-57.415226
338.290771	-78.179901	-22.452444	-20.165197
338.741272	-85.635391	-29.900818	-32.579288
339.191681	-38.433235	-0.112843	-117.064766
339.642120	-53.335133	2.368707	66.659920
340.092468	40.979210	-44.800404	9.617720
340.542816	-18.570162	42.060989	-52.447247
340.993103	-70.725372	14.775435	103.832108
341.443329	-13.605341	2.368707	14.580169
341.893555	-53.335133	81.726685	-15.200378
342.343689	-48.367363	-2.594633	56.743568
342.793793	26.097515	49.500305	-32.579288
343.243866	-1.195390	-10.040493	12.098996
343.693878	3.767967	2.368707	-69.837219
344.143890	-11.123223	9.813137	12.098996
344.593842	-65.756126	136.224396	12.098996
345.043732	-23.535265	74.291382	-59.899437
345.493591	-55.819035	7.331765	4.654989
345.943359	-21.052593	59.417999	-54.931114
346.393158	-55.819035	84.204964	-25.130573
346.842896	1.286340	69.334038	9.617720
347.292542	-13.605341	126.319366	4.654989
347.742218	-28.500927	44.540775	36.905643
348.191803	40.979210	96.594536	-59.899437
348.641357	-50.851192	22.218170	-27.613283
349.090881	-40.916641	111.458847	-22.647833
349.540314	-55.819035	84.204964	51.784637
349.989777	-18.570162	193.146866	46.825432
350.439148	-55.819035	262.372711	71.617615
350.888489	-16.087700	582.788574	170.684326
351.337799	-53.335133	960.367188	180.582138
351.787048	-60.787434	1552.148315	252.293518
352.236267	-50.851192	2081.677979	205.319595
352.685425	-80.664864	2252.637939	252.293518
353.134552	-40.916641	2146.730713	331.327148
353.583649	-58.303181	1818.548950	259.707031
354.032684	-135.363297	1323.781616	279.472534
354.481659	-53.335133	894.317383	365.873199
354.930634	-63.271660	717.877747	331.327148
355.379517	-50.851192	668.785889	257.236145
355.828430	75.688812	415.386169	286.883087
356.277222	-11.123223	449.886719	234.991516
356.726013	-30.983778	437.567322	267.119934
357.174774	8.730772	375.934174	286.883087
357.623444	-50.851192	412.921112	215.211838
358.072113	-16.087700	361.133423	323.922150
358.520721	-13.605341	457.277130	274.531952
358.969299	-43.400158	348.796875	299.231750
359.417786	-18.570162	375.934174	323.922150
359.866302	-120.440453	427.709869	249.822067
360.314697	-48.367363	375.934174	343.667114
360.763123	-115.466934	440.031158	311.578033
361.211456	-88.120804	422.780579	309.108917
361.659760	-45.883778	373.467590	212.738876
362.108032	-50.851192	383.333374	299.231750
362.556244	-30.983778	356.198975	378.206421
363.004456	6.249354	341.393646	306.639984
363.452576	-8.641074	417.851166	417.657043
363.900696	8.730772	454.813934	494.023712
364.348663	-90.606194	710.516113	796.158203
364.796722	-38.433235	1304.314697	1055.471680
365.244690	-13.605341	1775.016235	1184.777710
365.692596	-93.091835	1864.475098	1233.513184
366.140472	16.174267	1447.766357	1077.445557
366.588287	-8.641074	945.694519	921.041260
367.036102	63.294918	749.768372	810.861938
367.483826	1.286340	479.443848	587.512146
367.931549	-88.120804	427.709869	621.921936
368.379181	-35.950069	378.400665	449.692688
368.826843	-45.883778	383.333374	570.300537
369.274384	-35.950069	452.350372	543.244751
369.721924	-70.725372	425.245270	523.560730
370.169403	-68.240692	474.518494	609.634888
370.616821	-60.787434	479.443848	599.803345
371.064270	-58.303181	435.103088	555.544250
371.511566	-85.635391	417.851166	506.332397
371.958923	-68.240692	449.886719	508.793915
372.406158	-93.091835	501.602966	558.003906
372.853424	36.019108	447.422974	513.716370
373.300568	3.767967	511.448914	523.560730
373.747711	-103.035301	494.217346	619.464661
374.194794	-28.500927	521.293640	673.503418
374.641846	-80.664864	631.943420	678.413940
375.088898	-75.694908	617.200806	634.206787
375.535828	18.655268	820.855652	693.143066
375.982758	-60.787434	1033.683594	742.217285
376.429596	6.249354	1311.615601	823.112671
376.876465	-38.433235	1949.009521	869.645874
377.323242	-21.052593	2454.471924	629.293274
377.769989	-55.819035	2856.804443	459.546753
378.216675	-35.950069	2933.243652	277.002136
378.663330	38.499279	2880.698242	188.004410
379.109985	28.578102	2763.560059	116.217781
379.556519	-38.433235	2401.655029	101.354637
380.003052	33.538830	1922.450928	148.408478
380.449524	-83.150078	1396.738403	56.743568
380.895996	-85.635391	1138.640991	118.694496
381.342377	-105.521469	847.800415	173.158951
381.788727	16.174267	641.770203	212.738876
382.235046	-40.916641	550.818359	175.633499
382.681274	-60.787434	491.755280	284.412994
383.127533	-35.950069	496.679321	358.472198
383.573669	-28.500927	508.987518	429.980286
384.019836	-112.980476	440.031158	518.638794
384.465912	-73.210014	417.851166	457.083405
384.911957	3.767967	398.128967	427.515778
385.357971	-50.851192	435.103088	415.192047
385.803925	-33.466869	385.799591	373.273560
386.249847	-55.819035	479.443848	348.602539
386.695679	-35.950069	380.867065	447.228912
387.141541	-35.950069	508.987518	567.841370
387.587311	13.693295	479.443848	540.784607
388.033051	-45.883778	422.780579	498.947296
388.478729	38.499279	489.293396	555.544250
388.924408	-1.195390	442.495209	454.619934
389.369995	-18.570162	432.638794	589.970642
389.815552	-53.335133	395.663208	511.255341
390.261078	-120.440453	484.368805	494.023712
390.706543	-43.400158	444.959137	535.863892
391.152008	-73.210014	454.813934	550.624634
391.597351	-1.195390	533.597168	668.592468
392.042725	-11.123223	496.679321	612.092529
392.487976	-95.577576	444.959137	675.958740
392.933289	-58.303181	469.593048	668.592468
393.378479	-35.950069	474.518494	825.562622
393.823639	-55.819035	462.203766	835.361206
394.268768	-43.400158	484.368805	788.804993
394.713837	-30.983778	558.197327	923.487732
395.158905	18.655268	587.705750	737.311340
395.603851	-6.159030	533.597168	747.122803
396.048798	-45.883778	449.886719	857.403320
396.493683	-60.787434	553.278198	1023.720093
396.938568	-73.210014	494.217346	1060.355469
397.383392	-63.271660	558.197327	991.954407
397.828156	-45.883778	582.788574	1001.729858
398.272888	-95.577576	661.418945	837.810730
398.717560	-63.271660	614.743347	989.510254
399.162201	-78.179901	624.572693	928.380493
399.606781	-35.950069	575.412109	1004.173584
400.051361	-21.052593	607.370667	1016.390930
400.495819	-100.549232	555.737915	1028.605957
400.940308	-30.983778	582.788574	1016.390930
401.384705	-30.983778	526.215149	935.718750
401.829102	-26.018044	580.329834	1004.173584
402.273438	-38.433235	639.313660	974.843933
402.717682	6.249354	592.622314	1131.131348
403.161926	1.286340	609.828186	1133.570679
403.606110	-16.087700	597.538818	1126.252319
404.050293	-26.018044	1011.696716	1257.868896
404.494385	-45.883778	1404.030029	1610.156982
404.938446	-50.851192	1484.194702	1801.432007
405.382477	-58.303181	1379.721436	1714.324829
405.826447	-112.980476	994.590942	1576.212402
406.270386	-65.756126	776.741272	1357.645264
406.714233	-21.052593	673.696777	1277.347900
407.158081	36.019108	695.790710	1296.821777
407.601868	-63.271660	737.504517	1374.667114
408.045624	-26.018044	818.405518	1350.349121
408.489319	-1.195390	933.465271	1435.428833
408.933014	3.767967	1097.164185	1445.146240
409.376617	-28.500927	1731.459961	1343.052124
409.820190	-43.400158	3195.546387	1396.546997
410.263702	-13.605341	5146.834473	1479.147583
410.707184	-70.725372	6343.074219	1454.862305
411.150635	-68.240692	6479.639648	1469.434570
411.594025	-55.819035	5604.389160	1333.321899
412.037384	-23.535265	4922.075195	1211.586060
412.480682	38.499279	4240.416016	1313.857422
412.923981	-75.694908	3514.146484	1583.487549
413.367126	-53.335133	2823.342529	1801.432007
413.810333	-26.018044	2173.219727	1963.302734
414.253479	8.730772	1612.771851	1934.334106
414.696533	-13.605341	1136.201782	1968.129883
415.139587	6.249354	948.140198	1895.693604
415.582581	-33.466869	811.054688	1794.176514
416.025543	23.616825	636.856995	1866.701538
416.468414	-35.950069	634.400269	2088.718750
416.911285	-40.916641	644.226379	2403.867188
417.354065	-40.916641	622.115479	2555.031006
417.796875	-6.159030	681.062134	2701.158447
418.239594	-16.087700	479.443848	2882.899414
418.682281	-95.577576	587.705750	3240.595215
419.124908	-65.756126	528.675903	3435.591309
419.567505	73.210320	617.200806	3687.108154
420.010071	-26.018044	531.136597	3900.186035
420.452545	-68.240692	627.029541	3916.740723
420.895020	-30.983778	565.575745	3736.864746
421.337372	-63.271660	538.518066	3762.918701
421.779785	-53.335133	555.737915	4108.117676
422.222107	-48.367363	506.526245	4221.366699
422.664368	-78.179901	516.371460	4310.939453
423.106628	-90.606194	548.358398	4089.231201
423.548798	-30.983778	649.139099	3796.068359
423.990967	-23.535265	658.963074	3402.325928
424.433044	-8.641074	624.572693	3326.250000
424.875092	-50.851192	516.371460	2913.952148
425.317078	-68.240692	617.200806	2849.446777
425.759064	-8.641074	634.400269	2574.208496
426.200989	-55.819035	695.790710	2487.878418
426.642853	-40.916641	631.943420	2288.524170
427.084686	-60.787434	712.970032	2262.070068
427.526459	-6.159030	550.818359	2394.261475
427.968201	23.616825	619.658203	2139.315430
428.409912	-48.367363	720.331421	2146.541260
428.851563	11.212086	705.608215	2095.948975
429.293121	-115.466934	710.516113	2180.253174
429.734711	-108.007599	749.768372	2117.635010
430.176239	1.286340	649.139099	2038.092285
430.617706	-8.641074	666.330322	2067.025635
431.059113	-68.240692	698.245239	2134.498047
431.500488	-43.400158	683.517151	2112.816406
431.941833	-55.819035	676.151794	2115.225586
432.383087	-35.950069	614.743347	2057.382080
432.824341	-58.303181	725.238525	1992.261353
433.265533	-1.195390	688.427002	1900.524658
433.706726	-43.400158	717.877747	1854.618286
434.147827	-95.577576	757.125732	1842.533447
434.588867	-68.240692	882.078918	1960.889038
435.029877	-3.677091	1187.406982	2583.795654
435.470825	8.730772	2420.864746	4157.678223
435.911804	-73.210014	3483.281006	5268.215820
436.352661	13.693295	3409.642090	5527.291992
436.793518	-117.953644	2464.072021	4452.222656
437.234283	-45.883778	1975.560059	3966.389893
437.675049	-13.605341	1649.123535	3252.496094
438.115723	31.058451	1184.969360	2648.482910
438.556396	-21.052593	1060.547729	2173.030029
438.997040	-45.883778	1119.125488	2115.225586
439.437561	-38.433235	1028.798340	2016.386108
439.878113	-28.500927	1206.904297	1963.302734
440.318573	-21.052593	1028.798340	1915.016113
440.759033	-40.916641	1075.196655	1970.543213
441.199341	-40.916641	1172.780518	2018.797974
441.639709	-40.916641	1126.444458	2088.718750
442.079956	6.249354	1138.640991	2021.210083
442.520264	-68.240692	1202.030396	1941.577148
442.960510	38.499279	1194.719116	1992.261353
443.400604	28.578102	1233.704712	1900.524658
443.840759	-53.335133	1316.482056	1980.196533
444.280762	1.286340	1282.408325	2151.357910
444.720825	-53.335133	1170.342529	2223.577637
445.160767	-45.883778	1099.604614	2240.420166
445.600739	-90.606194	1153.274170	2098.358643
446.040558	-18.570162	1141.080078	2042.915283
446.480438	-93.091835	1131.323120	1919.845825
446.920258	-90.606194	1209.341187	1919.845825
447.359955	-1.195390	1233.704712	1803.849976
447.799713	3.767967	1262.930908	1987.435547
448.239319	-8.641074	1199.593262	2054.971191
448.678955	58.336536	1389.445679	2004.324463
449.118500	-65.756126	1663.659912	1980.196533
449.558014	-28.500927	2074.447021	1989.848511
449.997498	-68.240692	3090.709961	2028.445801
450.436951	8.730772	5867.390625	1941.577148
450.876343	45.939041	10570.519531	1866.701538
451.315674	-73.210014	15486.738281	1815.940674
451.754974	-80.664864	18438.767578	1840.116211
452.194183	-50.851192	18021.242188	1941.577148
452.633392	-48.367363	15993.146484	2009.149292
453.072510	-33.466869	14227.466797	2120.043945
453.511688	-28.500927	12223.409180	2069.436035
453.950684	-88.120804	10420.025391	1972.956665
454.389740	-53.335133	8599.638672	1912.601074
454.828735	-58.303181	6904.587402	1859.451782
455.267639	-75.694908	5125.781738	2071.846680
455.706543	36.019108	3758.368408	2115.225586
456.145325	-43.400158	2837.684570	2343.811523
456.584137	-70.725372	2062.393799	2449.483154
457.022858	-6.159030	1622.467285	2631.716553
457.461578	-38.433235	1340.811157	2528.655518
457.900208	16.174267	1163.028076	2672.429932
458.338867	-16.087700	1072.755249	2894.843750
458.777405	-63.271660	967.702087	3011.821045
459.215912	-38.433235	938.357300	3028.520752
459.654388	-33.466869	972.591736	2722.698242
460.092773	-58.303181	806.153992	2672.429932
460.531189	-90.606194	803.703369	2590.985352
460.969513	-68.240692	764.482056	2863.785156
461.407806	-33.466869	710.516113	2873.342529
461.846008	-45.883778	641.770203	2737.055908
462.284241	13.693295	656.507385	2480.680176
462.722351	-3.677091	614.743347	2411.071533
463.160461	-68.240692	803.703369	2461.483398
463.598541	6.249354	656.507385	2199.511230
464.036530	-43.400158	612.285767	2298.142090
464.474518	-26.018044	725.238525	2197.104248
464.912384	-3.677091	705.608215	2274.095459
465.350281	-35.950069	693.336182	2026.033936
465.788086	-8.641074	825.755554	2124.862305
466.225891	43.459179	1038.568848	2245.231689
466.663605	-38.433235	1262.930908	2475.881348
467.101318	-50.851192	1323.781616	2507.069824
467.539001	-40.916641	1360.268799	2567.017334
467.976563	26.097515	1304.314697	2722.698242
468.414124	-30.983778	1070.313843	2641.297852
468.851593	21.136166	945.694519	2634.112305
469.289063	-43.400158	960.367188	2658.062744
469.726440	-63.271660	911.447327	2674.824463
470.163849	11.212086	813.505066	2571.811768
470.601135	-11.123223	889.422302	2679.613037
471.038422	-120.440453	823.305603	2528.655518
471.475677	-21.052593	766.934082	2555.031006
471.912811	-23.535265	759.578064	2799.246094
472.350006	43.459179	788.998047	3247.735840
472.787048	-53.335133	855.147400	3447.468994
473.224121	-33.466869	752.220947	3492.592041
473.661072	36.019108	752.220947	3361.917725
474.098053	8.730772	752.220947	3309.600830
474.534943	-13.605341	744.863037	3271.534668
474.971802	1.286340	943.249084	2794.463623
475.408630	-28.500927	1053.222168	2634.112305
475.845367	-33.466869	1099.604614	2499.873535
476.282104	-60.787434	860.044922	2646.088135
476.718750	6.249354	793.900024	2813.592041
477.155426	-65.756126	872.286926	3212.027588
477.591949	31.058451	742.410461	3530.575439
478.028503	-55.819035	710.516113	3449.844727
478.464966	-65.756126	764.482056	3554.308105
478.901428	-23.535265	744.863037	3788.965820
479.337860	21.136166	867.390259	4013.652588
479.774170	-53.335133	835.554077	3912.010986
480.210510	13.693295	757.125732	3833.941162
480.646698	-38.433235	722.785034	3916.740723
481.082947	1.286340	771.837830	4067.979980
481.519073	-38.433235	867.390259	4084.509033
481.955200	-33.466869	781.644104	4223.724609
482.391266	-35.950069	921.233948	4268.519531
482.827301	-73.210014	811.054688	4332.143555
483.263306	-50.851192	860.044922	4082.148193
483.699188	8.730772	779.192566	4202.500488
484.135101	-60.787434	833.104553	3973.480469
484.570923	-23.535265	909.000488	3907.281006
485.006744	11.212086	955.476624	3644.440918
485.442413	-48.367363	972.591736	3523.454590
485.878174	-73.210014	940.803223	3414.207520
486.313782	-95.577576	928.572876	3568.544678
486.749390	-38.433235	975.036438	3311.979248
487.184998	-70.725372	975.036438	3352.407471
487.620453	-105.521469	904.106384	3722.651367
488.055939	-53.335133	1001.922302	4334.499512
488.491333	-55.819035	916.340698	4703.736816
488.926727	-68.240692	982.369812	4875.010742
489.362030	13.693295	1084.960815	4809.346680
489.797302	-45.883778	1060.547729	4748.339844
490.232513	-58.303181	1087.401733	4588.626953
490.667755	-13.605341	989.702698	4452.222656
491.102905	-11.123223	1087.401733	4668.511230
491.537964	-6.159030	1060.547729	4844.528320
491.973022	-21.052593	1194.719116	4877.355469
492.407990	-23.535265	1075.196655	4362.764648
492.842957	-35.950069	1121.565186	4079.786621
493.277832	-103.035301	1067.872437	4115.199219
493.712738	-38.433235	1082.519775	4089.231201
494.147491	13.693295	1114.245728	4072.702881
494.582275	-38.433235	1092.283325	3843.407471
495.017029	-30.983778	1131.323120	3805.538086
495.451660	-6.159030	1199.593262	4155.318848
495.886292	-45.883778	1097.164185	4275.590820
496.320831	-60.787434	1321.348633	4362.764648
496.755402	48.418663	1588.527954	4228.440918
497.189850	-85.635391	2190.072266	4195.424316
497.624298	-35.950069	3333.571289	4567.471680
498.058655	-33.466869	5095.365234	4637.974121
498.493042	-80.664864	5643.992676	4945.323730
498.927368	-50.851192	5324.463379	5062.416504
499.361572	60.815777	4056.357666	5279.897949
499.795807	-58.303181	3321.680176	4858.598633
500.229919	-28.500927	2725.279541	4971.093750
500.664063	-43.400158	2271.880371	5078.800293
501.098083	-58.303181	1743.561401	4893.765137
501.532104	3.767967	1416.181519	4837.493164
501.966064	-100.549232	1335.945923	4954.695313
502.399994	-26.018044	1223.960327	5123.258301
502.833893	-45.883778	1155.712769	5384.986816
503.267700	-28.500927	1265.365601	5015.593262
503.701477	-40.916641	1148.396606	5639.150391
504.135193	-70.725372	1106.925659	6062.344727
504.568909	16.174267	1136.201782	6620.496582
505.002502	-18.570162	1060.547729	6057.702148
505.436127	-117.953644	1133.762573	5997.333984
505.869629	28.578102	1102.045166	5706.682129
506.303162	-93.091835	1109.365845	5141.972656
506.736603	-90.606194	1033.683594	5265.878906
507.169983	-108.007599	1065.430908	5538.948730
507.603363	-78.179901	1070.313843	5286.906738
508.036621	-16.087700	1138.640991	5163.022461
508.469940	-50.851192	1192.281738	4691.995605
508.903107	-95.577576	1241.012451	4480.458008
509.336304	-75.694908	1219.087524	4346.277344
509.769379	-48.367363	1182.531738	4228.440918
510.202484	-18.570162	1270.235474	4263.805176
510.635529	-35.950069	1416.181519	4745.992188
511.068481	-21.052593	1394.307617	5069.437988
511.501434	-43.400158	1416.181519	5464.324707
511.934265	31.058451	1411.321289	6113.401367
512.367126	-68.240692	1350.540405	6125.001953
512.799927	-135.363297	1408.890991	6020.556641
513.232605	-26.018044	1287.277100	5524.960449
513.665344	-26.018044	1316.482056	5529.623047
514.097961	-21.052593	1262.930908	5249.520996
514.530579	-38.433235	1547.296631	5104.541504
514.963135	-68.240692	1881.388916	5235.499023
515.395691	13.693295	2319.967041	5541.279785
515.828064	-55.819035	2310.352051	5571.581543
516.260498	-103.035301	1939.352905	5557.597656
516.692871	-48.367363	1857.225342	5639.150391
517.125183	40.979210	1733.880493	5508.638672
517.557373	-95.577576	1678.193359	5436.329102
517.989624	-58.303181	1629.738159	5543.610840
518.421753	-65.756126	1617.619629	5573.912598
518.853943	3.767967	1484.194702	5715.993652
519.286072	-98.063286	1641.854614	5608.865723
519.718018	6.249354	1707.252319	5310.266113
520.150024	-3.677091	1784.692017	5251.858398
520.581909	-63.271660	1719.357056	5268.215820
521.013855	-33.466869	1835.472046	5020.276367
521.445679	-8.641074	1849.974854	5214.462402
521.877502	-30.983778	1871.724365	5177.053711
522.309204	-48.367363	1806.458740	5179.392090
522.740906	-13.605341	1828.219849	5440.995605
523.172546	-70.725372	1837.889404	5496.978516
523.604187	-21.052593	1779.854370	5471.323242
524.035767	-48.367363	1712.094482	5113.900391
524.467224	38.499279	1540.018188	4893.765137
524.898682	-50.851192	1506.043457	4750.686523
525.330078	-40.916641	1421.041748	4647.371094
525.761475	-40.916641	1462.339966	4973.437012
526.192749	-26.018044	1365.132202	5520.297363
526.624023	-70.725372	1335.945923	5389.654785
527.055237	-6.159030	1331.080444	5326.615234
527.486389	18.655268	1362.700684	5319.608887
527.917542	-40.916641	1374.858643	5531.955078
528.348572	16.174267	1377.290039	5240.172852
528.779663	-85.635391	1472.053955	5062.416504
529.210571	-35.950069	1527.886108	4931.264648
529.641541	-23.535265	1639.431519	5242.510254
530.072388	-85.635391	1692.724121	5818.374023
530.503235	23.616825	1823.384399	6171.393555
530.934082	-28.500927	1874.140625	6076.271484
531.364746	-75.694908	1956.251465	6157.478027
531.795532	-40.916641	2163.588135	6638.981934
532.226135	-18.570162	2600.759033	6927.460938
532.656738	-6.159030	2997.692627	7249.781738
533.087280	-13.605341	3428.650635	8141.195313
533.517822	48.418663	4950.193848	10003.524414
533.948242	-28.500927	8535.893555	13740.109375
534.378662	-13.605341	20527.914063	20129.234375
534.809082	-58.303181	40140.511719	23980.812500
535.239319	8.730772	58752.703125	27627.638672
535.669617	-103.035301	64672.980469	32217.326172
536.099792	-6.159030	60678.925781	39790.214844
536.529968	-68.240692	52702.558594	43718.863281
536.960083	-43.400158	46051.652344	43053.468750
537.390137	-33.466869	40421.832031	42745.121094
537.820190	-13.605341	35558.386719	42510.398438
538.250183	13.693295	30081.865234	41882.976563
538.680115	-11.123223	25659.267578	39353.878906
539.109985	-23.535265	21137.125000	35866.050781
539.539795	-23.535265	17479.056641	32055.056641
539.969543	-83.150078	15025.800781	28579.451172
540.399292	-43.400158	12185.617188	24356.142578
540.828979	-70.725372	9518.382813	20116.099609
541.258606	-68.240692	6932.252441	16201.073242
541.688171	-40.916641	5165.544922	13801.886719
542.117737	-45.883778	3952.392578	12140.968750
542.547302	-68.240692	3059.714111	10444.566406
542.976685	-38.433235	2579.190430	8624.494141
543.406128	-65.756126	2175.627441	7012.724121
543.835388	-63.271660	1903.130127	6048.417480
544.264771	-103.035301	1707.252319	5841.630859
544.693970	-26.018044	1557.000000	6113.401367
545.123230	-68.240692	2026.223877	7118.648926
545.552307	26.097515	5753.416016	12212.121094
545.981506	-60.787434	10325.610352	17922.697266
546.410583	-21.052593	11666.816406	20685.460938
546.839539	-63.271660	8088.835938	16737.398438
547.268555	-26.018044	5506.489746	12884.509766
547.697449	-45.883778	4663.998535	11648.801758
548.126282	-55.819035	4053.996094	10469.280273
548.555054	-21.052593	3166.965576	8408.135742
548.983887	-16.087700	2129.869873	6396.147461
549.412598	40.979210	1557.000000	5349.967285
549.841309	-58.303181	1481.766602	4828.111816
550.269958	-16.087700	1270.235474	4398.085449
550.698486	-73.210014	1209.341187	4367.474609
551.127075	-53.335133	1287.277100	4129.360352
551.555481	-6.159030	1124.004883	4150.599609
551.983948	-105.521469	1289.711182	3871.800537
552.412292	-60.787434	1508.470703	3867.068604
552.840698	-43.400158	1724.198486	4195.424316
553.268860	-35.950069	1811.295166	4285.018555
553.697205	-16.087700	1712.094482	4155.318848
554.125366	-63.271660	1576.403442	4282.661133
554.553467	-45.883778	1399.168823	4788.232910
554.981628	-53.335133	1343.243652	4966.408691
555.409607	-53.335133	1377.290039	4694.344238
555.837646	-33.466869	1260.495850	4442.809570
556.265564	-50.851192	1270.235474	4541.609863
556.693481	36.019108	1197.156128	4640.323242
557.121338	-117.953644	1145.958008	4386.312988
557.549133	6.249354	1165.466187	4157.678223
557.976929	18.655268	1143.519043	3942.750244
558.404602	18.655268	1233.704712	3784.230469
558.832275	-60.787434	1316.482056	3777.127197
559.259888	-21.052593	1184.969360	3743.971191
559.687439	-21.052593	1287.277100	4049.086914
560.114929	-48.367363	1299.447144	3994.750000
560.542419	-105.521469	1158.151245	3994.750000
560.969788	-28.500927	1211.777954	4261.447754
561.397156	6.249354	1219.087524	4039.638916
561.824524	-63.271660	1216.651001	4018.377930
562.251770	-11.123223	1189.844360	4067.979980
562.679016	-40.916641	1214.214355	4096.313965
563.106140	-63.271660	1223.960327	4056.172363
563.533264	-33.466869	1287.277100	4853.908691
563.960327	-16.087700	1199.593262	5373.314453
564.387329	-83.150078	1223.960327	5962.492188
564.814331	-6.159030	1233.704712	5811.396484
565.241272	-8.641074	1350.540405	5769.521484
565.668213	-40.916641	1377.290039	5771.848145
566.094971	-45.883778	1493.906128	5389.654785
566.521790	-120.440453	1866.891479	5328.950684
566.948425	-95.577576	2368.027832	5419.995117
567.375183	40.979210	3150.289795	5855.582520
567.801819	-23.535265	6023.060547	6162.117188
568.228394	-43.400158	11553.053711	7298.060547
568.654846	-43.400158	18552.441406	9031.231445
569.081421	85.602165	19742.058594	10080.125000
569.507874	-58.303181	16242.855469	10154.435547
569.934265	21.136166	11479.400391	9121.958984
570.360596	-117.953644	9020.064453	8357.982422
570.786865	-100.549232	7523.303223	7601.113770
571.213074	26.097515	5543.794434	6724.439941
571.639282	-78.179901	3862.522705	6233.995117
572.065430	-73.210014	2627.114258	5732.287598
572.491516	6.249354	2031.047241	5088.161621
572.917603	-1.195390	1653.969360	4703.736816
573.343567	-50.851192	1544.870605	4468.694336
573.769531	-60.787434	1416.181519	4612.128418
574.195435	-23.535265	1304.314697	4605.078613
574.621277	-120.440453	1321.348633	4835.148438
575.047119	-73.210014	1297.013428	4893.765137
575.472839	8.730772	1350.540405	5041.348633
575.898560	-50.851192	1552.148315	5452.660645
576.324158	-30.983778	2084.088379	6460.949707
576.749817	-73.210014	2995.306152	7146.267578
577.175293	-95.577576	3328.814941	7415.233398
577.600830	-8.641074	3016.780029	7141.664551
578.026306	-21.052593	2464.072021	6456.322266
578.451721	-70.725372	2890.254150	6966.642578
578.877136	-3.677091	3502.275879	7387.672363
579.302429	-40.916641	3656.480957	7525.416504
579.727661	-28.500927	3155.054443	7010.420898
580.152832	-78.179901	2396.851807	6162.117188
580.578064	-16.087700	2223.767090	6057.702148
581.003113	16.174267	2269.474854	5736.941895
581.428223	-1.195390	2139.505127	5555.266113
581.853271	-65.756126	1811.295166	5048.371582
582.278198	-55.819035	1673.349121	4872.666504
582.703125	11.212086	1738.721069	4769.461426
583.127930	-6.159030	1658.814697	4579.225098
583.552795	-45.883778	1842.723877	4518.093750
583.977539	-21.052593	2093.728760	4701.388672
584.402283	-28.500927	2202.107422	4884.388184
584.826965	13.693295	2377.636475	4875.010742
585.251587	-21.052593	2808.998291	5310.266113
585.676208	-63.271660	2978.600830	5583.234375
586.100647	-73.210014	3559.240234	5918.345215
586.525208	-48.367363	4454.761230	6699.040039
586.949524	26.097515	6088.058105	7607.993652
587.373962	-60.787434	8947.433594	9780.253906
587.798218	-105.521469	15552.540039	12738.247070
588.222534	31.058451	24073.685547	14528.850586
588.646729	-30.983778	27839.000000	13676.107422
589.070984	-80.664864	25825.445313	10325.432617
589.495117	-60.787434	25440.001953	8399.018555
589.919128	-75.694908	32886.281250	9513.683594
590.343201	-98.063286	40771.761719	12196.558594
590.767151	-18.570162	43900.074219	14599.239258
591.191101	-33.466869	42083.140625	16527.302734
591.614990	-63.271660	39258.015625	17850.556641
592.038818	-53.335133	36366.710938	19205.994141
592.462524	-65.756126	34324.203125	20148.935547
592.886292	-43.400158	30711.714844	20808.160156
593.310059	3.767967	27325.580078	21301.421875
593.733582	-73.210014	24298.890625	20735.853516
594.157227	-45.883778	21466.121094	20087.646484
594.580750	-55.819035	19315.509766	19649.998047
595.004272	-93.091835	17181.654297	18674.691406
595.427673	-73.210014	15857.284180	17706.269531
595.851074	-68.240692	14524.623047	17382.671875
596.274353	-18.570162	13548.225586	16638.925781
596.697632	-60.787434	12645.289063	16157.270508
597.120911	-85.635391	11646.746094	15824.236328
597.544067	-40.916641	10938.276367	15192.512695
597.967224	-30.983778	10264.882813	14924.578125
598.390320	-40.916641	9588.458984	14366.007813
598.813354	-55.819035	9128.939453	14324.180664
599.236328	31.058451	8672.453125	13929.805664
599.659241	-8.641074	8305.708984	13282.880859
600.082153	-1.195390	8077.412109	12183.218750
600.505005	-16.087700	7357.989258	12278.799805
600.927795	-65.756126	6842.320313	11887.262695
601.350525	-23.535265	6720.003906	11717.921875
601.773254	-38.433235	6292.113281	11009.757813
602.195862	-21.052593	6210.995605	10698.258789
602.618408	-21.052593	5872.040527	10399.623047
603.040955	-38.433235	5688.239746	10179.198242
603.463440	-13.605341	5322.128418	9461.666016
603.885925	8.730772	5273.072266	9189.965820
604.308350	-3.677091	4936.135254	8808.697266
604.730652	38.499279	4917.388184	8633.596680
605.152893	-13.605341	4617.012695	8353.420898
605.575195	-16.087700	4534.740234	8394.458984
605.997375	-23.535265	4282.846191	8145.762695
606.419495	-28.500927	4091.777832	7818.785156
606.841553	-108.007599	4072.888428	7701.975586
607.263672	-95.577576	3860.156738	7640.092285
607.685608	-35.950069	3812.825439	7401.454102
608.107605	-80.664864	3537.882324	7731.759766
608.529480	-70.725372	3582.965820	8239.363281
608.951294	-78.179901	3473.782227	8248.492188
609.373108	-135.363297	3473.782227	7882.872070
609.794800	-23.535265	3440.529053	7546.065918
610.216553	-78.179901	3580.593994	7116.347168
610.638123	-40.916641	3563.986084	7153.170410
611.059753	-88.120804	3412.018066	7015.028809
611.481262	-16.087700	3138.376709	6726.749023
611.902832	-65.756126	3021.551514	6641.291992
612.324219	-23.535265	3016.780029	6569.648926
612.745605	-85.635391	2856.804443	6372.996094
613.166931	-28.500927	2730.065430	6331.312012
613.588196	-48.367363	2763.560059	5936.935547
614.009460	40.979210	2634.300293	5983.398926
614.430664	-3.677091	2550.424561	5899.751953
614.851807	-50.851192	2942.794434	5899.751953
615.272827	-53.335133	3680.185059	6199.220215
615.693909	-75.694908	4931.448730	6356.787598
616.114929	-73.210014	5118.763672	6929.765625
616.535889	-18.570162	5041.532227	7265.876953
616.956787	48.418663	3720.468506	7281.969238
617.377563	-53.335133	3326.436768	6669.014160
617.798340	-28.500927	2988.147217	6182.988770
618.219055	-88.120804	2980.987793	5776.501953
618.639832	-167.709503	2598.363037	5555.266113
619.060364	-8.641074	2348.806396	5237.835938
619.481018	-65.756126	2108.187012	4750.686523
619.901611	-35.950069	2084.088379	4753.033691
620.322083	11.212086	1874.140625	4529.852539
620.742493	-58.303181	1847.557861	4454.575684
621.162842	-38.433235	1876.556885	4346.277344
621.583191	-55.819035	1801.622192	4273.233398
622.003418	-48.367363	1610.347778	4117.559570
622.423706	-105.521469	1736.300903	4086.870361
622.843872	-63.271660	1683.036987	4164.756836
623.264038	-1.195390	1639.431519	4108.117676
623.684143	-78.179901	1544.870605	4020.740967
624.104126	-40.916641	1537.591797	3930.928223
624.524170	-65.756126	1637.008179	3997.112793
624.944031	18.655268	1520.605835	3980.570557
625.364014	-35.950069	1450.195557	4701.388672
625.783752	-30.983778	1416.181519	5513.301758
626.203552	-38.433235	1435.619995	5988.043945
626.623230	-30.983778	1544.870605	5384.986816
627.042969	-65.756126	1428.331299	4595.677734
627.462585	-40.916641	1554.574219	4398.085449
627.882141	-8.641074	1418.611694	4308.583496
628.301697	-23.535265	1311.615601	4103.396484
628.721130	-11.123223	1372.427246	3765.287109
629.140625	-26.018044	1328.647705	3632.585938
629.559998	-80.664864	1311.615601	3468.845703
629.979309	-103.035301	1389.445679	3121.508789
630.398560	28.578102	1267.800537	3350.030029
630.817810	13.693295	1248.319214	3219.170166
631.237000	-11.123223	1197.156128	3259.636475
631.656067	-18.570162	1206.904297	3216.789551
632.075195	36.019108	1177.656372	3169.160400
632.494202	-33.466869	1221.523926	3104.824951
632.913208	13.693295	1204.467407	3111.975342
633.332092	-33.466869	1148.396606	3264.395264
633.750977	-73.210014	1209.341187	3295.327637
634.169739	-30.983778	1055.664063	3159.632080
634.588562	-6.159030	1121.565186	3104.824951
635.007263	23.616825	1097.164185	3007.049316
635.425964	-65.756126	1004.366028	3026.135498
635.844543	-85.635391	1028.798340	2983.186768
636.263123	-75.694908	1097.164185	2806.419189
636.681641	-103.035301	960.367188	2902.009521
637.100037	-23.535265	977.481079	2808.810303
637.518494	1.286340	1124.004883	2906.786621
637.936829	-53.335133	1048.337891	2980.800537
638.355164	-33.466869	997.034607	2913.952148
638.773438	-88.120804	1004.366028	3002.277100
639.191650	-58.303181	987.258545	3066.680176
639.609863	-80.664864	955.476624	2794.463623
640.027893	-117.953644	957.921875	2825.545166
640.445984	-53.335133	1001.922302	2732.270264
640.863953	-26.018044	852.698486	2636.507324
641.281921	-38.433235	935.911377	2842.277100
641.699829	-3.677091	1006.809692	2882.899414
642.117676	-26.018044	918.787354	3085.754150
642.535461	-58.303181	948.140198	3159.632080
642.953247	-18.570162	899.211914	3009.435547
643.370972	-18.570162	872.286926	2863.785156
643.788635	-50.851192	779.192566	2820.763916
644.206177	8.730772	992.146912	2677.218506
644.623718	1.286340	906.553467	2763.372314
645.041260	-13.605341	953.031250	2567.017334
645.458618	-28.500927	938.357300	2425.477539
645.876099	-18.570162	889.422302	2492.676270
646.293396	-63.271660	877.183228	2499.873535
646.710693	-40.916641	825.755554	2454.283691
647.127991	36.019108	950.585754	2336.601807
647.545166	-16.087700	776.741272	2413.472412
647.962341	40.979210	850.249512	2377.447998
648.379333	-8.641074	852.698486	2514.265381
648.796448	18.655268	857.596191	2569.414307
649.213379	-63.271660	943.249084	2358.228516
649.630310	-100.549232	850.249512	2346.214355
650.047180	-70.725372	730.145081	2331.795654
650.463989	21.136166	820.855652	2259.665039
650.880859	-68.240692	779.192566	2173.030029
651.297546	-70.725372	710.516113	2136.906738
651.714233	-65.756126	747.315735	2168.214355
652.130859	-16.087700	771.837830	2175.437988
652.547485	-35.950069	737.504517	2064.614746
652.963928	6.249354	722.785034	2132.089355
653.380432	-65.756126	762.029968	2160.990723
653.796814	-68.240692	815.955322	2194.697021
654.213196	-48.367363	1121.565186	2201.917725
654.629578	-70.725372	1917.621094	2425.477539
655.045837	-60.787434	2435.269531	2823.154297
655.462036	-1.195390	2495.264160	3078.602051
655.878174	-70.725372	1949.009521	3171.542480
656.294312	-120.440453	1680.615356	2844.666992
656.710327	-95.577576	1416.181519	2859.006104
657.126404	-28.500927	1335.945923	2842.277100
657.542358	-13.605341	1184.969360	3100.057617
657.958252	40.979210	1111.805908	3328.628174
658.374084	-58.303181	970.146912	3290.569336
658.789917	-8.641074	957.921875	2806.419189
659.205688	-50.851192	857.596191	2650.878174
659.621338	-73.210014	860.044922	2271.690918
660.037048	13.693295	793.900024	2358.228516
660.452637	-30.983778	649.139099	2278.905518
660.868164	-68.240692	703.153992	2069.436035
661.283691	-98.063286	739.957581	2006.736938
661.699158	-60.787434	717.877747	2033.269287
662.114502	3.767967	622.115479	1859.451782
662.529846	43.459179	695.790710	1835.281982
662.945129	-93.091835	693.336182	1888.446411
663.360413	-6.159030	737.504517	1779.663940
663.775635	-6.159030	744.863037	1924.675537
664.190674	-11.123223	678.607056	1905.355225
664.605835	-11.123223	622.115479	1939.162720
665.020813	-6.159030	690.881714	2064.614746
665.435791	1.286340	644.226379	2069.436035
665.850769	8.730772	663.874634	2064.614746
666.265625	-26.018044	685.972107	2475.881348
666.680420	-11.123223	580.329834	2574.208496
667.095215	-45.883778	690.881714	2569.414307
667.509949	-108.007599	663.874634	2372.643311
667.924622	-26.018044	685.972107	2238.014404
668.339233	-26.018044	693.336182	2197.104248
668.753784	-23.535265	627.029541	2225.983887
669.168335	-73.210014	644.226379	2067.025635
669.582825	13.693295	784.095520	1931.919556
669.997192	-53.335133	1525.459473	2045.326538
670.411560	-80.664864	3433.402100	1960.889038
670.825867	-16.087700	4804.839355	1968.129883
671.240173	-26.018044	4588.811523	2120.043945
671.654358	-103.035301	3050.174561	2081.488525
672.068481	-38.433235	2480.869385	2028.445801
672.482605	36.019108	2199.700439	1922.260742
672.896667	11.212086	1953.837646	1902.939819
673.310669	-3.677091	1595.802124	1835.281982
673.724609	-40.916641	1333.513184	1912.601074
674.138489	-11.123223	960.367188	1847.367676
674.552307	-38.433235	784.095520	1943.991455
674.966064	-103.035301	703.153992	1888.446411
675.379822	-80.664864	656.507385	1902.939819
675.793579	-80.664864	735.051453	1791.757813
676.207153	-28.500927	639.313660	1830.447021
676.620789	-60.787434	698.245239	1948.819702
677.034241	-11.123223	629.486511	1849.784668
677.447754	-6.159030	597.538818	1844.950562
677.861206	-38.433235	597.538818	1769.987183
678.274597	-13.605341	595.080627	1648.932983
678.687866	16.174267	563.116394	1661.046509
679.101135	-26.018044	511.448914	1629.547363
679.514404	-8.641074	513.910217	1561.660278
679.927551	45.939041	523.754272	1578.637573
680.340698	28.578102	528.675903	1479.147583
680.753723	-30.983778	486.831146	1442.716919
681.166748	-35.950069	427.709869	1364.941040
681.579712	-95.577576	422.780579	1508.279541
681.992615	8.730772	553.278198	1590.761841
682.405457	-48.367363	469.593048	1517.988037
682.818298	-53.335133	403.060150	1743.370850
683.231018	3.767967	442.495209	1900.524658
683.643738	-38.433235	501.602966	2076.667725
684.056335	-13.605341	570.494263	2057.382080
684.468994	-78.179901	705.608215	1869.117676
684.881531	-11.123223	886.974609	1946.405640
685.293945	-65.756126	830.654907	2107.997314
685.706482	-28.500927	604.912842	2079.078125
686.118774	-98.063286	501.602966	1963.302734
686.531128	-40.916641	472.055939	1578.637573
686.943481	-60.787434	560.656860	1566.511475
687.355713	-3.677091	506.526245	1484.003662
687.767883	-45.883778	462.203766	1464.577393
688.179932	-48.367363	407.990692	1345.484497
688.592041	-38.433235	366.067474	1277.347900
689.004089	1.286340	346.329224	1318.723999
689.416016	-38.433235	388.265442	1172.588501
689.827881	-68.240692	531.136597	1304.123047
690.239868	-13.605341	563.116394	1177.464355
690.651611	-70.725372	457.277130	1233.513184
691.063354	-85.635391	432.638794	1177.464355
691.475098	-33.466869	338.925690	1067.680420
691.886719	-63.271660	417.851166	1070.121582
692.298340	-58.303181	407.990692	1165.274414
692.709900	-21.052593	363.600494	1138.448853
693.121460	-48.367363	292.017212	1101.852905
693.532837	-80.664864	319.179199	1118.933228
693.944214	-80.664864	250.016571	1057.913574
694.355652	-88.120804	254.959381	1148.204834
694.766846	-13.605341	222.824509	1038.376465
695.178101	-23.535265	282.137360	1092.090942
695.589294	-98.063286	274.726227	1252.998291
696.000366	-50.851192	289.547455	1279.782349
696.411438	-33.466869	301.895599	1338.187012
696.822510	-88.120804	217.879288	1094.531616
697.233459	-13.605341	324.116272	1153.082031
697.644409	-13.605341	269.785156	1123.812744
698.055298	-78.179901	316.710388	987.066040
698.466064	-1.195390	299.426117	999.286316
698.876831	58.336536	324.116272	1048.145874
699.287537	-90.606194	203.041061	1087.209473
699.698181	-55.819035	289.547455	1162.836060
700.108826	-43.400158	284.607391	1155.520630
700.519348	-58.303181	217.879288	1140.887939
700.929810	-85.635391	225.297058	955.283997
701.340271	63.294918	227.769485	1021.277039
701.750732	-110.493988	178.302673	921.041260
702.161011	-33.466869	222.824509	957.729309
702.571350	-43.400158	304.365021	962.619690
702.981567	28.578102	245.073502	862.300659
703.391724	-18.570162	309.303375	923.487732
703.801880	-45.883778	279.667084	872.094116
704.211914	-88.120804	296.956665	842.709412
704.621948	-33.466869	262.372711	788.804993
705.031921	-8.641074	282.137360	732.405151
705.441895	-45.883778	262.372711	722.591797
705.851746	11.212086	272.255798	769.192871
706.261536	-90.606194	232.713928	791.256165
706.671265	-43.400158	294.487000	837.810730
707.081055	-40.916641	331.521545	725.045349
707.490662	-80.664864	230.241821	678.413940
707.900330	-13.605341	240.129913	702.960693
708.309814	38.499279	292.017212	589.970642
708.719299	-21.052593	235.186081	644.033203
709.128784	-21.052593	168.404495	648.945618
709.538147	-78.179901	262.372711	678.413940
709.947510	-3.677091	193.146866	702.960693
710.356750	-35.950069	185.725220	624.379150
710.766052	-55.819035	220.352005	548.164673
711.175171	-13.605341	343.861450	585.053589
711.584290	1.286340	262.372711	700.506348
711.993347	-18.570162	257.430481	688.233643
712.402405	8.730772	259.901642	634.206787
712.811401	21.136166	198.094101	702.960693
713.220276	-65.756126	148.603302	705.414917
713.629150	-26.018044	235.186081	523.560730
714.037964	-50.851192	289.547455	580.136169
714.446777	-35.950069	193.146866	695.597656
714.855408	-152.778229	277.196716	535.863892
715.264099	-65.756126	148.603302	530.942810
715.672668	-50.851192	175.828247	597.345215
716.081177	-16.087700	245.073502	599.803345
716.489746	-40.916641	175.828247	567.841370
716.898132	-8.641074	175.828247	560.463440
717.306519	65.773827	237.658112	528.482422
717.714844	-83.150078	257.430481	575.218689
718.123108	-3.677091	198.094101	466.936066
718.531372	-63.271660	269.785156	545.704895
718.939514	-40.916641	259.901642	545.704895
719.347595	-50.851192	225.297058	506.332397
719.755676	-11.123223	198.094101	476.787537
720.163696	-18.570162	257.430481	518.638794
720.571716	-68.240692	222.824509	508.793915
720.979614	-26.018044	185.725220	641.576782
721.387451	-127.901390	198.094101	516.177612
721.795227	-35.950069	235.186081	466.936066
722.202942	8.730772	200.567627	550.624634
722.610718	-78.179901	282.137360	585.053589
723.018311	-16.087700	170.879211	530.942810
723.425903	-98.063286	217.879288	513.716370
723.833374	1.286340	222.824509	599.803345
724.240906	-40.916641	108.981689	533.403381
724.648376	-33.466869	232.713928	555.544250
725.055725	-50.851192	104.027084	589.970642
725.463013	-90.606194	170.879211	646.489624
725.870300	31.058451	262.372711	594.887268
726.277466	1.286340	108.981689	454.619934
726.684631	-55.819035	183.251083	474.324829
727.091797	23.616825	165.929657	491.561646
727.498779	-8.641074	222.824509	427.515778
727.905823	6.249354	151.078842	481.712433
728.312805	-48.367363	259.901642	442.301422
728.719666	-58.303181	163.454727	425.051422
729.126526	55.857323	165.929657	375.740173
729.533264	-1.195390	156.029465	405.331421
729.940063	-48.367363	262.372711	360.939117
730.346680	-85.635391	227.769485	442.301422
730.753357	-35.950069	138.700302	432.444672
731.159851	3.767967	207.987473	397.934784
731.566406	-63.271660	245.073502	476.787537
731.972900	-26.018044	66.855148	400.400421
732.379272	-38.433235	210.460617	316.515961
732.785645	-65.756126	254.959381	380.672852
733.191895	-90.606194	133.748260	481.712433
733.598206	-50.851192	180.776855	373.273560
734.004333	-8.641074	168.404495	427.515778
734.410522	-55.819035	151.078842	432.444672
734.816528	-16.087700	158.504700	400.400421
735.222656	-90.606194	165.929657	338.731598
735.628662	-28.500927	237.658112	360.939117
736.034546	-53.335133	205.514374	442.301422
736.440430	-80.664864	284.607391	459.546753
736.846252	-68.240692	151.078842	513.716370
737.252014	-80.664864	173.353714	508.793915
737.657715	6.249354	178.302673	476.787537
738.063354	-70.725372	175.828247	614.549805
738.468933	-21.052593	207.987473	496.485413
738.874512	11.212086	175.828247	491.561646
739.280029	-68.240692	101.549759	538.324280
739.685486	-85.635391	126.319366	405.331421
740.090881	16.174267	153.554276	548.164673
740.496216	-48.367363	173.353714	528.482422
740.901550	-45.883778	183.251083	577.677612
741.306702	-18.570162	106.504440	631.749939
741.711914	-63.271660	128.795807	589.970642
742.117004	-40.916641	185.725220	410.262085
742.522095	3.767967	210.460617	535.863892
742.927124	-115.466934	250.016571	526.021606
743.332031	73.210320	287.077484	491.561646
743.737000	13.693295	210.460617	360.939117
744.141785	-43.400158	183.251083	353.537567
744.546631	-83.150078	66.855148	402.865967
744.951355	-18.570162	133.748260	326.390411
745.356079	16.174267	148.603302	286.883087
745.760620	-23.535265	185.725220	316.515961
746.165283	-1.195390	247.545151	417.657043
746.569824	-8.641074	143.652069	400.400421
746.974243	-85.635391	143.652069	326.390411
747.378723	-21.052593	170.879211	338.731598
747.783020	-95.577576	118.889565	333.795380
748.187378	-30.983778	146.127808	281.942810
748.591614	-93.091835	200.567627	351.070099
748.995850	-108.007599	123.842819	333.795380
749.399963	21.136166	146.127808	336.263519
749.804077	-21.052593	160.979828	294.292480
750.208130	-108.007599	220.352005	353.537567
750.612122	3.767967	126.319366	294.292480
751.016052	-73.210014	193.146866	370.806854
751.419922	-35.950069	165.929657	338.731598
751.823792	-1.195390	163.454727	326.390411
752.227478	-103.035301	84.204964	365.873199
752.631226	-85.635391	146.127808	301.701263
753.034851	-33.466869	195.620590	343.667114
753.438477	-58.303181	156.029465	318.984772
753.842102	-50.851192	116.412712	306.639984
754.245544	-43.400158	203.041061	513.716370
754.648987	21.136166	84.204964	513.716370
755.052368	-33.466869	180.776855	486.637207
755.455750	1.286340	138.700302	530.942810
755.859009	-75.694908	136.224396	479.249908
756.262268	-105.521469	99.072197	474.324829
756.665405	-95.577576	210.460617	494.023712
757.068542	-70.725372	165.929657	311.578033
757.471680	-35.950069	151.078842	360.939117
757.874634	-21.052593	153.554276	341.199524
758.277588	-35.950069	178.302673	346.134857
758.680420	-53.335133	76.769966	249.822067
759.083374	3.767967	170.879211	328.858826
759.486084	-50.851192	123.842819	346.134857
759.888916	-98.063286	99.072197	304.170654
760.291504	26.097515	101.549759	353.537567
760.694214	-48.367363	66.855148	259.707031
761.096802	-26.018044	99.072197	284.412994
761.499268	8.730772	151.078842	314.047058
761.901733	-100.549232	151.078842	328.858826
762.304199	-58.303181	200.567627	314.047058
762.706543	21.136166	158.504700	316.515961
763.108826	36.019108	96.594536	259.707031
763.511108	-75.694908	106.504440	346.134857
763.913208	-70.725372	158.504700	402.865967
764.315369	-68.240692	27.179428	351.070099
764.717529	8.730772	56.938694	388.071503
765.119568	-35.950069	37.100838	405.331421
765.521545	1.286340	94.116913	518.638794
765.923462	-112.980476	314.241486	457.083405
766.325317	-78.179901	528.675903	653.857971
766.727112	-60.787434	513.910217	742.217285
767.128845	-93.091835	459.740509	567.841370
767.530518	-103.035301	358.666260	459.546753
767.932251	-120.440453	299.426117	481.712433
768.333862	-21.052593	188.199249	439.837372
768.735413	-6.159030	292.017212	420.121948
769.136841	-11.123223	279.667084	402.865967
769.538269	11.212086	496.679321	316.515961
769.939636	6.249354	511.448914	318.984772
770.341003	-26.018044	390.731476	274.531952
770.742249	-63.271660	287.077484	331.327148
771.143433	-28.500927	235.186081	262.178101
771.544617	-16.087700	200.567627	309.108917
771.945740	-50.851192	198.094101	351.070099
772.346802	-26.018044	215.406448	380.672852
772.747803	-23.535265	183.251083	333.795380
773.148682	-21.052593	86.683006	230.047119
773.549622	-98.063286	136.224396	239.935501
773.950439	31.058451	76.769966	183.056381
774.351196	-88.120804	131.272018	202.846268
774.751892	-11.123223	178.302673	267.119934
775.152588	-26.018044	61.897060	234.991516
775.553162	-26.018044	108.981689	264.649078
775.953735	-35.950069	146.127808	237.463562
776.354309	-88.120804	64.376160	153.359314
776.754639	-30.983778	106.504440	200.372955
777.155090	-6.159030	89.161072	91.444023
777.555420	-35.950069	136.224396	190.478348
777.955750	16.174267	133.748260	232.519363
778.355896	-3.677091	108.981689	212.738876
778.756104	-6.159030	32.140408	222.630051
779.156189	13.693295	118.889565	257.236145
779.556274	-21.052593	74.291382	183.056381
779.956299	-100.549232	32.140408	262.178101
780.356201	-13.605341	148.603302	252.293518
780.756165	-58.303181	136.224396	286.883087
781.156006	-98.063286	81.726685	326.390411
781.555786	-65.756126	59.417999	336.263519
781.955505	-33.466869	54.459293	180.582138
782.355225	-26.018044	128.795807	249.822067
782.754761	-18.570162	81.726685	190.478348
783.154358	-28.500927	29.659971	180.582138
783.553894	-93.091835	96.594536	239.935501
783.953369	-26.018044	12.294271	217.684662
784.352783	43.459179	44.540775	160.784912
784.752075	-28.500927	89.161072	140.981384
785.151367	-60.787434	136.224396	153.359314
785.550598	40.979210	165.929657	71.617615
785.949768	58.336536	69.334038	136.029388
786.348877	-23.535265	101.549759	54.264156
786.747986	36.019108	195.620590	118.694496
787.147034	-13.605341	113.935760	91.444023
787.545959	-43.400158	71.812691	66.659920
787.944885	-58.303181	116.412712	69.138817
788.343750	-38.433235	158.504700	133.553375
788.742493	-13.605341	123.842819	153.359314
789.141235	-100.549232	170.879211	140.981384
789.539917	-18.570162	165.929657	180.582138
789.938538	-83.150078	141.176239	84.009789
790.337158	-40.916641	175.828247	44.345608
790.735718	-58.303181	17.256495	118.694496
791.134094	-28.500927	64.376160	143.457092
791.532532	-33.466869	39.580967	158.309906
791.930847	-70.725372	131.272018	126.124329
792.329224	26.097515	69.334038	133.553375
792.727417	-35.950069	108.981689	126.124329
793.125610	-48.367363	17.256495	173.158951
793.523682	36.019108	84.204964	170.684326
793.921753	-45.883778	12.294271	140.981384
794.319824	-105.521469	47.020592	101.354637
794.717773	-45.883778	47.020592	190.478348
795.115723	-112.980476	89.161072	158.309906
795.513550	-78.179901	47.020592	106.309471
795.911377	-35.950069	24.698919	155.834656
796.309082	-16.087700	79.248306	138.505432
796.706787	-21.052593	138.700302	160.784912
797.104370	-80.664864	56.938694	220.157394
797.501953	-103.035301	44.540775	88.966049
797.899536	-11.123223	42.060989	101.354637
798.296936	-6.159030	61.897060	108.786736
798.694397	6.249354	116.412712	145.932831
799.091736	-85.635391	81.726685	118.694496
799.489014	-50.851192	131.272018	61.701946
799.886230	-65.756126	113.935760	160.784912
800.283447	-11.123223	81.726685	98.877205
800.680542	-33.466869	54.459293	71.617615
801.077637	-83.150078	32.140408	101.354637
801.474670	-33.466869	106.504440	108.786736
801.871643	-73.210014	27.179428	150.884018
802.268555	-70.725372	66.855148	111.263763
802.665405	-85.635391	27.179428	103.832108
803.062256	-45.883778	163.454727	34.425407
803.458923	6.249354	81.726685	116.217781
803.855652	-23.535265	121.366173	101.354637
804.252258	-48.367363	138.700302	44.345608
804.648804	-3.677091	86.683006	116.217781
805.045410	-85.635391	29.659971	71.617615
805.441833	-63.271660	39.580967	138.505432
805.838257	6.249354	69.334038	84.009789
806.234619	-21.052593	148.603302	116.217781
806.630859	-100.549232	101.549759	128.600784
807.027100	21.136166	34.620743	113.740822
807.423279	-21.052593	-2.594633	111.263763
807.819458	-60.787434	118.889565	101.354637
808.215515	6.249354	12.294271	103.832108
808.611572	-8.641074	44.540775	155.834656
809.007507	1.286340	12.294271	153.359314
809.403381	-63.271660	66.855148	98.877205
809.799194	-1.195390	106.504440	185.530518
810.195068	-1.195390	64.376160	79.053253
810.590759	-35.950069	81.726685	205.319595
810.986450	-115.466934	81.726685	64.181053
811.382080	-43.400158	66.855148	158.309906
811.777649	-18.570162	37.100838	133.553375
812.173157	-28.500927	61.897060	131.077133
812.568665	-70.725372	101.549759	93.921761
812.964050	-73.210014	71.812691	118.694496
813.359375	-1.195390	89.161072	143.457092
813.754639	-95.577576	113.935760	98.877205
814.149841	-1.195390	74.291382	136.029388
814.545105	-75.694908	51.979916	121.171257
814.940186	-70.725372	108.981689	131.077133
815.335266	-65.756126	146.127808	133.553375
815.730347	21.136166	156.029465	173.158951
816.125244	-55.819035	108.981689	188.004410
816.520203	-26.018044	138.700302	101.354637
816.914978	-38.433235	257.430481	173.158951
817.309753	-30.983778	762.029968	589.970642
817.704468	-1.195390	2031.047241	996.842407
818.099182	-50.851192	3193.165039	1651.355957
818.493774	33.538830	4183.815918	2295.737549
818.888367	-35.950069	5130.460938	3157.249512
819.282898	-70.725372	5581.086914	3409.455078
819.677307	-53.335133	5469.174316	3618.357910
820.071716	-95.577576	4720.355957	3383.312500
820.466003	36.019108	3673.073975	3140.572021
820.860291	-68.240692	2768.344238	2571.811768
821.254517	-3.677091	2204.514404	1948.819702
821.648743	1.286340	1712.094482	1675.580444
822.042786	-23.535265	1301.880981	1345.484497
822.436890	11.212086	962.812012	989.510254
822.830872	-13.605341	708.062317	671.047974
823.224792	-8.641074	528.675903	629.293274
823.618774	-58.303181	252.488022	530.942810
824.012512	-11.123223	225.297058	429.980286
824.406311	43.459179	240.129913	301.701263
824.799988	-40.916641	148.603302	333.795380
825.193665	-53.335133	183.251083	237.463562
825.587280	-43.400158	163.454727	200.372955
825.980835	-21.052593	168.404495	153.359314
826.374329	-60.787434	2.368707	195.425781
826.767761	18.655268	86.683006	116.217781
827.161194	-80.664864	12.294271	195.425781
827.554443	-108.007599	47.020592	133.553375
827.947754	-26.018044	113.935760	163.259949
828.340942	-40.916641	64.376160	103.832108
828.734131	-58.303181	89.161072	128.600784
829.127136	-98.063286	96.594536	148.408478
829.520264	-18.570162	84.204964	111.263763
829.913208	-45.883778	74.291382	128.600784
830.306152	-43.400158	37.100838	200.372955
830.699097	-11.123223	101.549759	69.138817
831.091797	-45.883778	56.938694	143.457092
831.484619	1.286340	74.291382	118.694496
831.877319	-33.466869	89.161072	140.981384
832.270020	-33.466869	64.376160	227.574783
832.662537	-30.983778	24.698919	272.061371
833.055054	-115.466934	84.204964	126.124329
833.447510	-26.018044	81.726685	242.407089
833.839966	-73.210014	22.218170	148.408478
834.232361	-23.535265	34.620743	202.846268
834.624634	-98.063286	113.935760	98.877205
835.016907	-40.916641	9.813137	71.617615
835.409058	-35.950069	42.060989	178.107803
835.801208	-88.120804	71.812691	131.077133
836.193298	-26.018044	74.291382	49.305153
836.585327	-30.983778	39.580967	12.098996
836.977295	-6.159030	14.775435	-2.789957
837.369202	-21.052593	101.549759	91.444023
837.761047	-43.400158	89.161072	116.217781
838.152832	-40.916641	34.620743	46.825432
838.544617	-28.500927	69.334038	71.617615
838.936218	63.294918	81.726685	74.096306
839.327942	-145.314056	74.291382	64.181053
839.719421	-33.466869	47.020592	126.124329
840.111023	31.058451	74.291382	4.654989
840.502380	-53.335133	4.850288	9.617720
840.893860	-6.159030	34.620743	-7.753866
841.285217	-90.606194	19.737318	96.399536
841.676453	-33.466869	22.218170	51.784637
842.067749	-85.635391	-12.522700	-5.271859
842.458862	-93.091835	-52.251621	66.659920
842.849976	50.898319	-17.487295	76.574768
843.241028	3.767967	12.294271	116.217781
843.632019	-73.210014	44.540775	108.786736
844.022949	-35.950069	44.540775	113.740822
844.413879	-60.787434	94.116913	54.264156
844.804749	-38.433235	99.072197	64.181053
845.195496	-70.725372	37.100838	59.222744
845.586182	-6.159030	7.331765	140.981384
845.976807	-83.150078	37.100838	9.617720
846.367432	-73.210014	59.417999	56.743568
846.757996	-68.240692	-0.112843	86.487968
847.148499	38.499279	-2.594633	106.309471
847.538879	36.019108	-32.383865	143.457092
847.929260	-30.983778	79.248306	86.487968
848.319641	-1.195390	-24.935040	24.503550
848.709839	-98.063286	-34.866882	106.309471
849.100098	6.249354	76.769966	96.399536
849.490234	-23.535265	-0.112843	49.305153
849.880310	1.286340	-10.040493	74.096306
850.270325	-70.725372	-5.076527	66.659920
850.660339	-38.433235	2.368707	86.487968
851.050171	-35.950069	54.459293	118.694496
851.440125	-26.018044	-62.188099	56.743568
851.829895	-70.725372	56.938694	86.487968
852.219604	-16.087700	24.698919	2.173399
852.609314	-6.159030	-12.522700	103.832108
852.998901	-8.641074	-47.284084	-22.647833
853.388550	-6.159030	-15.005013	7.136339
853.778015	-85.635391	69.334038	34.425407
854.167480	8.730772	-34.866882	34.425407
854.556885	-26.018044	-79.580978	123.647911
854.946228	-75.694908	32.140408	17.061102
855.335571	-73.210014	69.334038	14.580169
855.724731	-35.950069	51.979916	2.173399
856.113953	-53.335133	12.294271	17.061102
856.503052	60.815777	34.620743	46.825432
856.892151	-73.210014	71.812691	-2.789957
857.281067	-73.210014	-5.076527	71.617615
857.670105	-50.851192	29.659971	74.096306
858.058960	-70.725372	14.775435	71.617615
858.447754	3.767967	34.620743	56.743568
858.836609	-40.916641	-10.040493	31.945198
859.225281	-55.819035	49.500305	49.305153
859.613892	-8.641074	7.331765	7.136339
860.002502	-45.883778	32.140408	9.617720
860.391052	-6.159030	69.334038	69.138817
860.779541	-45.883778	27.179428	34.425407
861.167969	-150.290024	76.769966	76.574768
861.556335	-103.035301	74.291382	39.385780
861.944702	43.459179	61.897060	9.617720
862.332947	3.767967	54.459293	17.061102
862.721069	-13.605341	61.897060	69.138817
863.109253	-63.271660	-54.735619	81.531639
863.497314	-21.052593	-72.126274	39.385780
863.885376	-85.635391	7.331765	71.617615
864.273315	-18.570162	-37.350140	49.305153
864.661255	-33.466869	-22.452444	14.580169
865.049072	-50.851192	-2.594633	-42.512421
865.436890	-18.570162	2.368707	-52.447247
865.824707	-80.664864	54.459293	71.617615
866.212280	3.767967	-54.735619	22.022928
866.599915	-63.271660	-19.969816	19.542067
866.987488	33.538830	4.850288	41.865677
867.375061	-18.570162	9.813137	34.425407
867.762451	-1.195390	113.935760	101.354637
868.149841	-21.052593	19.737318	-25.130573
868.537170	3.767967	56.938694	9.617720
868.924438	-6.159030	-19.969816	84.009789
869.311707	11.212086	-24.935040	106.309471
869.698853	-95.577576	54.459293	79.053253
870.085938	-103.035301	51.979916	39.385780
870.472961	-50.851192	-0.112843	9.617720
870.859985	-13.605341	111.458847	-0.308294
871.246887	8.730772	-34.866882	84.009789
871.633789	28.578102	47.020592	-32.579288
872.020569	-43.400158	9.813137	14.580169
872.407349	-28.500927	-27.417875	17.061102
872.794067	-3.677091	-12.522700	-7.753866
873.180725	-90.606194	39.580967	29.464754
873.567322	-68.240692	-2.594633	56.743568
873.953796	-58.303181	-12.522700	71.617615
874.340332	-55.819035	-10.040493	-20.165197
874.726624	-3.677091	89.161072	39.385780
875.113037	-33.466869	37.100838	101.354637
875.499329	-35.950069	49.500305	7.136339
875.885559	-93.091835	4.850288	17.061102
876.271729	-35.950069	86.683006	12.098996
876.657898	-11.123223	7.331765	-52.447247
877.044006	18.655268	61.897060	64.181053
877.429932	-80.664864	9.813137	81.531639
877.815918	-26.018044	-2.594633	-20.165197
878.201782	-40.916641	14.775435	59.222744
878.587585	-45.883778	56.938694	118.694496
878.973389	-78.179901	9.813137	44.345608
879.359070	-40.916641	22.218170	-22.647833
879.744751	-80.664864	-39.833500	36.905643
880.130310	-16.087700	-49.767868	9.617720
880.515930	-1.195390	9.813137	31.945198
880.901367	13.693295	22.218170	56.743568
881.286804	13.693295	49.500305	-15.200378
881.672180	13.693295	-54.735619	7.136339
882.057434	-18.570162	-2.594633	61.701946
882.442749	-80.664864	37.100838	-2.789957
882.827942	11.212086	44.540775	-49.963345
883.213013	-83.150078	-15.005013	31.945198
883.598145	-48.367363	-10.040493	-2.789957
883.983154	-30.983778	-64.672516	56.743568
884.368042	-33.466869	76.769966	66.659920
884.753052	-16.087700	-104.436981	96.399536
885.137817	-28.500927	7.331765	36.905643
885.522644	33.538830	-7.558390	7.136339
885.907349	26.097515	2.368707	-0.308294
886.292053	-16.087700	-49.767868	-15.200378
886.676636	-125.414253	-12.522700	7.136339
887.061157	-85.635391	42.060989	-25.130573
887.445740	-3.677091	-59.703789	-2.789957
887.830078	-16.087700	4.850288	-27.613283
888.214539	-6.159030	27.179428	-5.271859
888.598816	-35.950069	-47.284084	4.654989
888.983093	-55.819035	64.376160	2.173399
889.367249	-28.500927	34.620743	69.138817
889.751465	-68.240692	71.812691	-15.200378
890.135498	-43.400158	74.291382	-25.130573
890.519531	-11.123223	24.698919	-27.613283
890.903503	-40.916641	71.812691	-7.753866
891.287415	-120.440453	-2.594633	2.173399
891.671326	-98.063286	-15.005013	-32.579288
892.055054	-21.052593	51.979916	-57.415226
892.438843	-48.367363	42.060989	24.503550
892.822510	-85.635391	-22.452444	44.345608
893.206116	-16.087700	49.500305	-0.308294
893.589661	-16.087700	-17.487295	12.098996
893.973206	-103.035301	-7.558390	24.503550
894.356628	-45.883778	-27.417875	9.617720
894.739990	1.286340	4.850288	12.098996
895.123352	-40.916641	-116.869057	-52.447247
895.506592	-3.677091	29.659971	-32.579288
895.889832	26.097515	42.060989	96.399536
896.272949	-26.018044	42.060989	31.945198
896.656067	23.616825	17.256495	-25.130573
897.039063	-11.123223	-47.284084	-15.200378
897.422058	-26.018044	-2.594633	-27.613283
897.804993	-11.123223	-0.112843	17.061102
898.187866	-11.123223	-24.935040	54.264156
898.570618	43.459179	42.060989	71.617615
898.953369	1.286340	-54.735619	69.138817
899.336121	-103.035301	-22.452444	-10.235976
899.718689	-105.521469	-29.900818	22.022928
900.101257	-70.725372	-12.522700	-30.096231
900.483704	-18.570162	9.813137	39.385780
900.866211	-16.087700	-62.188099	61.701946
901.248596	-6.159030	-44.800404	-10.235976
901.630920	-33.466869	-44.800404	41.865677
902.013184	-3.677091	-101.950867	-44.995869
902.395386	-18.570162	12.294271	-10.235976
902.777588	-13.605341	-84.551277	-7.753866
903.159668	-40.916641	34.620743	7.136339
903.541687	-21.052593	39.580967	-7.753866
903.923645	-33.466869	-0.112843	14.580169
904.305603	-18.570162	32.140408	56.743568
904.687500	-43.400158	32.140408	9.617720
905.069275	13.693295	-44.800404	-52.447247
905.451050	-30.983778	-2.594633	4.654989
905.832642	-100.549232	-39.833500	-32.579288
906.214294	33.538830	-37.350140	44.345608
906.595825	-26.018044	61.897060	81.531639
906.977417	-90.606194	-19.969816	12.098996
907.358826	6.249354	24.698919	36.905643
907.740234	-13.605341	-19.969816	34.425407
908.121582	16.174267	17.256495	-30.096231
908.502869	-11.123223	-27.417875	-10.235976
908.884033	1.286340	-54.735619	2.173399
909.265198	-13.605341	4.850288	9.617720
909.646301	-16.087700	22.218170	-7.753866
910.027344	18.655268	-49.767868	51.784637
910.408325	-40.916641	22.218170	29.464754
910.789246	-63.271660	-49.767868	56.743568
911.170105	-98.063286	24.698919	71.617615
911.550903	-58.303181	39.580967	7.136339
911.931641	-11.123223	17.256495	49.305153
912.312317	-33.466869	-32.383865	-35.062447
912.692932	-26.018044	-29.900818	17.061102
913.073547	-35.950069	14.775435	9.617720
913.453979	31.058451	-24.935040	46.825432
913.834473	-80.664864	-42.316833	46.825432
914.214783	-75.694908	19.737318	7.136339
914.595154	-26.018044	19.737318	-17.682802
914.975464	-117.953644	44.540775	26.984201
915.355652	-137.850861	-12.522700	-22.647833
915.735840	-60.787434	-37.350140	2.173399
916.115845	-55.819035	-17.487295	-12.718058
916.495972	-50.851192	2.368707	51.784637
916.875854	-78.179901	-0.112843	34.425407
917.255859	-28.500927	-7.558390	39.385780
917.635620	-40.916641	-129.303680	12.098996
918.015503	3.767967	-24.935040	128.600784
918.395203	-55.819035	-22.452444	34.425407
918.774902	-50.851192	22.218170	-27.613283
919.154480	-30.983778	2.368707	101.354637
919.534058	-63.271660	32.140408	54.264156
919.913574	-16.087700	81.726685	24.503550
920.292969	-18.570162	29.659971	26.984201
920.672363	-16.087700	7.331765	24.503550
921.051636	-68.240692	39.580967	2.173399
921.430969	-50.851192	-27.417875	-2.789957
921.810181	-45.883778	-49.767868	-5.271859
922.189331	-58.303181	-24.935040	59.222744
922.568420	18.655268	-5.076527	-72.321831
922.947388	-85.635391	24.698919	-0.308294
923.326416	-30.983778	42.060989	-92.203339
923.705261	16.174267	7.331765	9.617720
924.084106	-13.605341	-10.040493	2.173399
924.462891	-58.303181	44.540775	81.531639
924.841675	-40.916641	-27.417875	41.865677
925.220337	3.767967	49.500305	-10.235976
925.598938	-60.787434	-19.969816	-2.789957
925.977478	-83.150078	49.500305	-35.062447
926.355957	-33.466869	47.020592	56.743568
926.734436	-55.819035	-17.487295	24.503550
927.112732	-8.641074	-52.251621	51.784637
927.491089	-68.240692	-15.005013	49.305153
927.869324	-21.052593	-17.487295	-0.308294
928.247559	-21.052593	22.218170	7.136339
928.625671	23.616825	81.726685	66.659920
929.003723	3.767967	-52.251621	19.542067
929.381775	1.286340	-39.833500	44.345608
929.759705	-63.271660	-19.969816	-22.647833
930.137634	-38.433235	-54.735619	-25.130573
930.515381	-70.725372	-37.350140	54.264156
930.893250	-55.819035	-67.156906	19.542067
931.270935	-48.367363	-27.417875	-136.961670
931.648560	-3.677091	-2.594633	-2.789957
932.026123	-35.950069	-19.969816	-117.064766
932.403687	11.212086	-22.452444	-37.545578
932.781250	3.767967	-52.251621	-112.091675
933.158630	-26.018044	-39.833500	-42.512421
933.536011	-60.787434	14.775435	-40.028950
933.913208	-50.851192	2.368707	-7.753866
934.290527	-73.210014	76.769966	-12.718058
934.667664	8.730772	29.659971	-27.613283
935.044800	50.898319	86.683006	-146.912720
935.421814	40.979210	42.060989	-12.718058
935.798889	-68.240692	32.140408	-82.261734
936.175842	6.249354	54.459293	-54.931114
936.552673	-30.983778	-94.493279	61.701946
936.929504	-30.983778	-64.672516	-54.931114
937.306274	-137.850861	-89.522133	12.098996
937.683044	28.578102	-39.833500	24.503550
938.059570	-85.635391	-24.935040	22.022928
938.436218	6.249354	-27.417875	-49.963345
938.812744	-43.400158	27.179428	-0.308294
939.189148	-70.725372	-22.452444	-15.200378
939.565613	-13.605341	14.775435	-22.647833
939.941956	-8.641074	-47.284084	-59.899437
940.318237	-63.271660	12.294271	7.136339
940.694458	-3.677091	-7.558390	-112.091675
941.070557	11.212086	-37.350140	-74.806679
941.446655	-30.983778	22.218170	14.580169
941.822693	-23.535265	-32.383865	17.061102
942.198669	-3.677091	19.737318	44.345608
942.574646	-1.195390	-74.611115	19.542067
942.950562	-33.466869	-22.452444	29.464754
943.326294	-30.983778	-89.522133	31.945198
943.702026	28.578102	-64.672516	-54.931114
944.077698	-33.466869	-129.303680	-69.837219
944.453369	-53.335133	14.775435	-69.837219
944.828918	-45.883778	-39.833500	-74.806679
945.204468	-33.466869	-79.580978	-62.383625
945.579834	-68.240692	-2.594633	-59.899437
945.955261	-33.466869	-2.594633	-40.028950
946.330627	-78.179901	24.698919	-122.038277
946.705811	16.174267	-37.350140	39.385780
947.081055	21.136166	-72.126274	-15.200378
947.456177	-38.433235	-2.594633	-35.062447
947.831238	-55.819035	-44.800404	-37.545578
948.206238	-53.335133	-89.522133	-49.963345
948.581238	-45.883778	-57.219715	-107.118889
948.956116	3.767967	14.775435	-17.682802
949.330933	-78.179901	-37.350140	-0.308294
949.705811	-30.983778	17.256495	-40.028950
950.080505	-73.210014	47.020592	-32.579288
950.455139	-55.819035	-69.641533	-131.986740
950.829773	-85.635391	7.331765	74.096306
951.204346	-16.087700	89.161072	49.305153
951.578735	-73.210014	-0.112843	-97.174713
951.953186	-83.150078	-59.703789	-25.130573
952.327515	3.767967	-44.800404	-15.200378
952.701843	-48.367363	2.368707	-94.689041
953.076172	-33.466869	-22.452444	14.580169
953.450195	90.558159	37.100838	-57.415226
953.824341	-38.433235	-0.112843	-22.647833
954.198486	-50.851192	-37.350140	-67.352585
954.572449	-35.950069	4.850288	-49.963345
954.946350	21.136166	-96.979080	7.136339
955.320251	-11.123223	12.294271	24.503550
955.694092	-50.851192	-129.303680	-82.261734
956.067871	-11.123223	-79.580978	-25.130573
956.441589	-11.123223	-69.641533	-17.682802
956.815125	11.212086	-62.188099	-77.291634
957.188721	-80.664864	-12.522700	46.825432
957.562256	1.286340	-52.251621	-94.689041
957.935730	-8.641074	-32.383865	-52.447247
958.309021	3.767967	-52.251621	-12.718058
958.682373	-35.950069	-82.066147	2.173399
959.055664	-23.535265	-69.641533	-12.718058
959.428955	-65.756126	-77.095932	-37.545578
959.802063	-65.756126	-22.452444	2.173399
960.175110	8.730772	-79.580978	-20.165197
960.548157	-55.819035	-34.866882	-82.261734
960.921143	-105.521469	-10.040493	4.654989
961.294128	26.097515	-12.522700	41.865677
961.666809	-145.314056	-34.866882	39.385780
962.039612	-11.123223	-7.558390	26.984201
962.412415	-105.521469	-82.066147	-32.579288
962.785095	-63.271660	-64.672516	-47.479553
963.157715	-105.521469	66.855148	-10.235976
963.530151	-73.210014	-15.005013	4.654989
963.902649	-95.577576	12.294271	-67.352585
964.275146	-50.851192	-24.935040	-27.613283
964.647522	-63.271660	-72.126274	-62.383625
965.019714	-40.916641	-44.800404	49.305153
965.392029	-55.819035	-39.833500	7.136339
965.764160	-60.787434	-104.436981	-35.062447
966.136292	-53.335133	-77.095932	-59.899437
966.508423	-100.549232	-89.522133	-20.165197
966.880371	-53.335133	-59.703789	2.173399
967.252319	-21.052593	-29.900818	-7.753866
967.624207	-33.466869	-7.558390	-97.174713
967.996094	-3.677091	-77.095932	51.784637
968.367737	-48.367363	-29.900818	-10.235976
968.739441	1.286340	-44.800404	12.098996
969.111084	33.538830	-15.005013	-7.753866
969.482666	8.730772	12.294271	84.009789
969.854248	-70.725372	-0.112843	-7.753866
970.225586	-80.664864	-15.005013	-15.200378
970.596985	53.377872	-72.126274	26.984201
970.968323	-30.983778	-49.767868	-15.200378
971.339661	-23.535265	-64.672516	-42.512421
971.710754	-83.150078	-82.066147	-27.613283
972.081909	-88.120804	-39.833500	26.984201
972.453064	-18.570162	-15.005013	-35.062447
972.824097	-28.500927	37.100838	4.654989
973.194946	-103.035301	-59.703789	-40.028950
973.565918	-23.535265	56.938694	2.173399
973.936768	55.857323	-7.558390	-54.931114
974.307556	-23.535265	24.698919	29.464754
974.678284	-105.521469	19.737318	-27.613283
975.048828	-75.694908	-67.156906	-69.837219
975.419495	-28.500927	-59.703789	-22.647833
975.790039	16.174267	-47.284084	2.173399
976.160522	-55.819035	-104.436981	26.984201
976.530884	-38.433235	29.659971	-2.789957
976.901245	-98.063286	-12.522700	9.617720
977.271606	-127.901390	-15.005013	4.654989
977.641846	-60.787434	24.698919	-57.415226
978.012024	-30.983778	-24.935040	-52.447247
978.382019	-16.087700	-42.316833	9.617720
978.752136	-55.819035	-12.522700	-12.718058
979.122131	-40.916641	-44.800404	64.181053
979.492065	11.212086	-24.935040	-82.261734
979.861877	-26.018044	-22.452444	-89.717743
980.231689	-38.433235	-37.350140	14.580169
980.601440	-100.549232	9.813137	-92.203339
980.971191	-38.433235	2.368707	-57.415226
981.340820	3.767967	-64.672516	-62.383625
981.710266	-38.433235	32.140408	-0.308294
982.079773	-50.851192	-94.493279	-62.383625
982.449280	28.578102	-54.735619	-64.868050
982.818604	-55.819035	-39.833500	-62.383625
983.187866	-13.605341	9.813137	-30.096231
983.557129	-40.916641	-34.866882	-2.789957
983.926331	-21.052593	-62.188099	-47.479553
984.295471	-35.950069	-39.833500	-54.931114
984.664612	-16.087700	-67.156906	9.617720
985.033569	-80.664864	-10.040493	-37.545578
985.402527	6.249354	-84.551277	-27.613283
985.771362	-18.570162	-19.969816	4.654989
986.140259	-18.570162	-10.040493	-54.931114
986.508911	-38.433235	-22.452444	-20.165197
986.877625	-16.087700	12.294271	17.061102
987.246277	1.286340	-49.767868	64.181053
987.614929	-53.335133	-15.005013	24.503550
987.983459	-53.335133	-54.735619	-2.789957
988.351807	28.578102	-10.040493	12.098996
988.720215	-63.271660	-37.350140	-35.062447
989.088623	1.286340	-131.790985	-25.130573
989.456909	6.249354	-74.611115	-12.718058
989.825012	-26.018044	-59.703789	-64.868050
990.193115	-43.400158	-34.866882	46.825432
990.561279	-60.787434	-17.487295	-25.130573
990.929321	-16.087700	-37.350140	-67.352585
991.297302	-95.577576	-49.767868	-10.235976
991.665100	8.730772	-79.580978	-17.682802
992.033020	16.174267	17.256495	49.305153
992.400818	-53.335133	42.060989	4.654989
992.768494	26.097515	-17.487295	-44.995869
993.136047	8.730772	-57.219715	-104.632652
993.503723	-13.605341	-10.040493	-72.321831
993.871277	-70.725372	-54.735619	-62.383625
994.238770	-103.035301	-69.641533	-49.963345
994.606140	-70.725372	-64.672516	-42.512421
994.973450	-30.983778	-57.219715	17.061102
995.340759	-50.851192	-47.284084	-12.718058
995.708008	-45.883778	-106.923210	-7.753866
996.075195	3.767967	-52.251621	4.654989
996.442200	-55.819035	7.331765	-37.545578
996.809265	-38.433235	-10.040493	51.784637
997.176270	26.097515	34.620743	-2.789957
997.543152	-30.983778	14.775435	-84.747009
997.910095	-43.400158	-24.935040	-17.682802
998.276733	-83.150078	29.659971	-42.512421
998.643494	8.730772	-19.969816	-35.062447
999.010193	-26.018044	-69.641533	-27.613283
999.376831	-80.664864	-111.895851	29.464754
999.743286	-40.916641	4.850288	49.305153
1000.109802	-60.787434	-5.076527	-10.235976
1000.476257	8.730772	-124.329529	-15.200378
1000.842651	-28.500927	9.813137	-22.647833
1001.208923	65.773827	-17.487295	-17.682802
1001.575134	-30.983778	-52.251621	-20.165197
1001.941284	-105.521469	-52.251621	-12.718058
1002.307434	-93.091835	-74.611115	-57.415226
1002.673523	78.167336	-96.979080	-40.028950
1003.039429	-26.018044	-84.551277	29.464754
1003.405334	-40.916641	-104.436981	-22.647833
1003.771179	-70.725372	-24.935040	-10.235976
1004.137024	-115.466934	-32.383865	-176.776093
1004.502808	-45.883778	17.256495	-30.096231
1004.868408	-93.091835	-27.417875	-32.579288
1005.234009	-73.210014	-44.800404	17.061102
1005.599609	-115.466934	-34.866882	14.580169
1005.965149	-55.819035	-10.040493	24.503550
1006.330444	-70.725372	-54.735619	-94.689041
1006.695862	-3.677091	-47.284084	-69.837219
1007.061218	-28.500927	2.368707	-59.899437
1007.426453	-3.677091	-47.284084	-79.776566
1007.791626	43.459179	-7.558390	-64.868050
1008.156677	-43.400158	-32.383865	9.617720
1008.521729	-78.179901	-49.767868	-22.647833
1008.886780	-40.916641	-29.900818	-49.963345
1009.251709	-58.303181	4.850288	-27.613283
1009.616577	-105.521469	-27.417875	-44.995869
1009.981384	-127.901390	-79.580978	-52.447247
1010.346130	-35.950069	-104.436981	41.865677
1010.710754	-40.916641	-29.900818	14.580169
1011.075439	21.136166	-37.350140	-74.806679
1011.439941	-65.756126	-47.284084	-42.512421
1011.804443	-50.851192	-7.558390	2.173399
1012.168884	11.212086	-47.284084	17.061102
1012.533325	45.939041	-42.316833	-25.130573
1012.897522	-18.570162	-82.066147	-2.789957
1013.261780	-13.605341	-17.487295	69.138817
1013.626038	-43.400158	-10.040493	4.654989
1013.990112	28.578102	-22.452444	-5.271859
1014.354187	16.174267	-19.969816	-0.308294
1014.718140	-63.271660	-0.112843	-2.789957
1015.082153	-11.123223	17.256495	-20.165197
1015.446045	-11.123223	-39.833500	-49.963345
1015.809937	-13.605341	-5.076527	-7.753866
1016.173523	-63.271660	-24.935040	-35.062447
1016.537170	-33.466869	-39.833500	14.580169
1016.900879	3.767967	-72.126274	-52.447247
1017.264404	-3.677091	-39.833500	-5.271859
1017.627991	-75.694908	-104.436981	-37.545578
1017.991333	-78.179901	-57.219715	-2.789957
1018.354675	-88.120804	-69.641533	-74.806679
1018.718018	-58.303181	-19.969816	-52.447247
1019.081299	-53.335133	-49.767868	-0.308294
1019.444397	-88.120804	-52.251621	-52.447247
1019.807495	-73.210014	-79.580978	-25.130573
1020.170593	-3.677091	2.368707	-59.899437
1020.533691	-53.335133	-0.112843	-57.415226
1020.896606	-38.433235	-12.522700	36.905643
1021.259460	-95.577576	-17.487295	-52.447247
1021.622253	-43.400158	-54.735619	-37.545578
1021.985046	-83.150078	-94.493279	2.173399
1022.347778	-75.694908	-32.383865	2.173399
1022.710327	53.377872	-52.251621	-10.235976
1023.072876	26.097515	-79.580978	-47.479553
1023.435364	-33.466869	-62.188099	-52.447247
1023.797852	-53.335133	-57.219715	-10.235976
1024.160278	-80.664864	-47.284084	17.061102
1024.522461	-85.635391	-74.611115	-30.096231
1024.884766	-63.271660	-141.741119	-10.235976
1025.246948	-26.018044	-37.350140	-12.718058
1025.609131	-80.664864	-69.641533	-10.235976
1025.971069	-33.466869	-99.464981	34.425407
1026.333130	-18.570162	-54.735619	51.784637
1026.694946	-1.195390	-64.672516	-25.130573
1027.056885	-50.851192	-34.866882	9.617720
1027.418823	-11.123223	74.291382	7.136339
1027.780396	8.730772	-69.641533	29.464754
1028.142090	-3.677091	-12.522700	17.061102
1028.503784	-135.363297	-44.800404	-44.995869
1028.865479	-110.493988	-74.611115	-25.130573
1029.226807	-8.641074	-42.316833	-17.682802
1029.588135	-48.367363	-34.866882	12.098996
1029.949707	-40.916641	-17.487295	-37.545578
1030.310913	-8.641074	-17.487295	56.743568
1030.672241	-21.052593	-15.005013	-37.545578
1031.033325	-90.606194	-0.112843	-62.383625
1031.394531	-68.240692	-39.833500	-74.806679
1031.755493	-58.303181	-37.350140	-67.352585
1032.116577	-45.883778	56.938694	-54.931114
1032.477417	-135.363297	-89.522133	-67.352585
1032.838257	1.286340	-32.383865	-40.028950
1033.199097	11.212086	-0.112843	7.136339
1033.559937	53.377872	-52.251621	-84.747009
1033.920654	-28.500927	-74.611115	-35.062447
1034.281128	-63.271660	-19.969816	-12.718058
1034.641724	-11.123223	-17.487295	-67.352585
1035.002197	-30.983778	-99.464981	-27.613283
1035.362671	43.459179	-52.251621	-109.605232
1035.722900	3.767967	91.639038	-89.717743
1036.083252	-33.466869	69.334038	61.701946
1036.443481	-95.577576	-59.703789	-15.200378
1036.803711	-65.756126	-77.095932	-119.551537
1037.163940	90.558159	-39.833500	-69.837219
1037.523804	11.212086	-5.076527	-131.986740
1037.883789	-93.091835	-27.417875	-44.995869
1038.243774	-26.018044	17.256495	-25.130573
1038.603638	-68.240692	-57.219715	-74.806679
1038.963257	-35.950069	-10.040493	31.945198
1039.323120	-13.605341	-22.452444	-5.271859
1039.682861	36.019108	2.368707	-84.747009
>>>>>End Processed Spectral Data<<<<<
