Jaz Data File
++++++++++++++++++++++++++++++++++++
Date: Wed Dec 03 21:39:32 2014
User: jaz
Dark Spectrum Present: Yes
Reference Spectrum Present: Yes
Processed Spectrum Present: No
Spectrometers: JAZA2310
Integration Time (usec): 36000 (JAZA2310)
Spectra Averaged: 1 (JAZA2310)
Boxcar Smoothing: 0 (JAZA2310)
Correct for Electrical Dark: Yes (JAZA2310)
Strobe/Lamp Enabled: No (JAZA2310)
Correct for Detector Non-linearity: Yes (JAZA2310)
Correct for Stray Light: No (JAZA2310)
Number of Pixels in Processed Spectrum: 2048
>>>>>Begin Processed Spectral Data<<<<<
W	D	R	S
188.301102	0.000000	0.000000	0.000000
188.764923	0.000000	0.000000	0.000000
189.228699	-50.851192	-7.558390	-94.425545
189.692459	-18.570162	-39.833500	-19.902033
190.156158	11.212086	-62.188099	-19.902033
190.619812	-11.123223	-57.219715	-72.058434
191.083435	-1.195390	-15.005013	-86.968925
191.547043	-3.677091	81.726685	49.567875
192.010590	6.249354	4.850288	14.843178
192.474091	28.578102	-0.112843	-14.937236
192.937561	110.378319	17.256495	96.662186
193.401001	38.499279	37.100838	32.207996
193.864410	-58.303181	22.218170	14.843178
194.327759	13.693295	17.256495	34.688328
194.791077	78.167336	37.100838	-7.490757
195.254349	40.979210	42.060989	42.128567
195.717575	-3.677091	22.218170	24.766516
196.180786	-1.195390	7.331765	52.047485
196.643951	-38.433235	-12.522700	29.727695
197.107071	16.174267	59.417999	34.688328
197.570145	-8.641074	-67.156906	-69.573830
198.033203	-58.303181	-32.383865	7.399381
198.496216	13.693295	-29.900818	54.526989
198.959167	-1.195390	-24.935040	9.880751
199.422089	-28.500927	22.218170	-19.902033
199.884979	8.730772	22.218170	14.843178
200.347855	-26.018044	12.294271	29.727695
200.810654	-65.756126	-0.112843	-111.828094
201.273422	-55.819035	-19.969816	19.805056
201.736160	-6.159030	4.850288	-27.350220
202.198853	-40.916641	22.218170	-62.120270
202.661514	-8.641074	-17.487295	-24.867386
203.124130	3.767967	-54.735619	-49.700047
203.586700	3.767967	-49.767868	37.168556
204.049240	-55.819035	-92.007721	-27.350220
204.511734	-6.159030	-89.522133	-49.700047
204.974197	-58.303181	-84.551277	64.443848
205.436615	18.655268	-82.066147	-74.543274
205.899002	-73.210014	-94.493279	-19.902033
206.361343	-30.983778	-24.935040	-64.604683
206.823654	-23.535265	37.100838	-96.911201
207.285919	-90.606194	-7.558390	-9.972857
207.748123	-26.018044	-34.866882	-67.089203
208.210327	-110.493988	-141.741119	-22.384657
208.672485	-18.570162	-34.866882	-99.397110
209.134583	8.730772	-72.126274	47.088299
209.596649	-33.466869	-39.833500	66.922699
210.058670	-40.916641	-5.076527	2.436464
210.520676	-11.123223	-52.251621	-32.316067
210.982635	-55.819035	-44.800404	-57.151890
211.444534	-70.725372	2.368707	-49.700047
211.906403	-65.756126	-32.383865	-0.045218
212.368240	-58.303181	-17.487295	-2.526870
212.830048	-16.087700	-72.126274	-59.636093
213.291779	-40.916641	-32.383865	24.766516
213.753494	-115.466934	-49.767868	-22.384657
214.215179	6.249354	-59.703789	-52.183937
214.676819	-48.367363	-87.036652	-34.799213
215.138412	-18.570162	-0.112843	-19.902033
215.599960	-48.367363	-12.522700	-64.604683
216.061493	-35.950069	14.775435	9.880751
216.522949	-53.335133	32.140408	4.918042
216.984406	-88.120804	-89.522133	-49.700047
217.445801	-63.271660	-34.866882	-79.513130
217.907166	-75.694908	-89.522133	2.436464
218.368484	-45.883778	-74.611115	-2.526870
218.829773	-65.756126	-57.219715	-22.384657
219.291031	-85.635391	-104.436981	-49.700047
219.752228	-8.641074	-2.594633	-29.833023
220.213379	-40.916641	-126.816483	-37.282333
220.674500	6.249354	-77.095932	17.324100
221.135574	-55.819035	-109.409546	-34.799213
221.596634	-11.123223	-22.452444	-39.765694
222.057648	70.731590	-52.251621	14.843178
222.518600	6.249354	-79.580978	106.572075
222.979553	31.058451	-24.935040	-14.937236
223.440430	3.767967	-64.672516	-19.902033
223.901276	-55.819035	-39.833500	32.207996
224.362076	23.616825	-62.188099	-64.604683
224.822845	-33.466869	-52.251621	-52.183937
225.283569	16.174267	-57.219715	22.285906
225.744278	-167.709503	-79.580978	47.088299
226.204910	-48.367363	-44.800404	-34.799213
226.665512	-75.694908	-89.522133	-69.573830
227.126114	16.174267	-42.316833	-37.282333
227.586639	-3.677091	-17.487295	-34.799213
228.047119	-16.087700	-92.007721	-69.573830
228.507568	-40.916641	-19.969816	-59.636093
228.967972	26.097515	-99.464981	-57.151890
229.428345	-18.570162	-84.551277	-126.748711
229.888687	8.730772	-139.253387	-96.911201
230.348984	3.767967	17.256495	-72.058434
230.809219	-85.635391	-17.487295	-64.604683
231.269440	-50.851192	-17.487295	-81.998291
231.729614	-23.535265	39.580967	-24.867386
232.189758	-70.725372	-5.076527	-27.350220
232.649841	-58.303181	-42.316833	39.648678
233.109894	-95.577576	27.179428	-94.425545
233.569901	-70.725372	-2.594633	-67.089203
234.029892	-13.605341	-19.969816	-14.937236
234.489822	-40.916641	4.850288	27.247158
234.949707	21.136166	-17.487295	-29.833023
235.409561	-38.433235	-89.522133	-19.902033
235.869385	-16.087700	-59.703789	-42.249157
236.329163	-28.500927	-49.767868	-124.261635
236.788895	-90.606194	-44.800404	-91.939850
237.248581	-23.535265	42.060989	-19.902033
237.708237	-13.605341	-37.350140	-2.526870
238.167847	63.294918	-47.284084	-89.454269
238.627441	21.136166	-12.522700	-109.341660
239.086960	33.538830	-57.219715	-17.419649
239.546463	-6.159030	-101.950867	-24.867386
240.005920	-30.983778	-101.950867	-72.058434
240.465332	-13.605341	-32.383865	-17.419649
240.924698	45.939041	-94.493279	2.436464
241.384033	36.019108	24.698919	-74.543274
241.843338	-38.433235	-101.950867	42.128567
242.302597	-65.756126	-67.156906	-59.636093
242.761810	-21.052593	-77.095932	-42.249157
243.220993	6.249354	-79.580978	-84.483559
243.680115	-8.641074	-15.005013	24.766516
244.139221	-137.850861	-17.487295	-54.667793
244.598282	-70.725372	-39.833500	-47.216267
245.057297	58.336536	-44.800404	-22.384657
245.516266	-45.883778	-44.800404	2.436464
245.975189	-135.363297	-82.066147	-49.700047
246.434082	-50.851192	-19.969816	-77.028214
246.892944	-3.677091	-24.935040	-5.008761
247.351761	-33.466869	-77.095932	-17.419649
247.810516	-78.179901	2.368707	-114.314507
248.269272	-3.677091	-42.316833	-32.316067
248.727951	-45.883778	-47.284084	-96.911201
249.186600	-55.819035	-32.383865	7.399381
249.645218	-70.725372	-7.558390	42.128567
250.103790	-93.091835	-19.969816	-49.700047
250.562317	-28.500927	-10.040493	-96.911201
251.020813	-38.433235	-77.095932	-111.828094
251.479279	-28.500927	-52.251621	-96.911201
251.937668	45.939041	-59.703789	-52.183937
252.396057	-1.195390	-34.866882	-81.998291
252.854385	-83.150078	-62.188099	54.526989
253.312683	-63.271660	37.100838	44.608482
253.770920	-48.367363	-34.866882	-111.828094
254.229126	-28.500927	-49.767868	-22.384657
254.687302	-21.052593	-37.350140	-114.314507
255.145432	-18.570162	-106.923210	-57.151890
255.603500	-33.466869	32.140408	-39.765694
256.061584	6.249354	-62.188099	-72.058434
256.519592	-53.335133	42.060989	-67.089203
256.977570	-45.883778	-54.735619	-114.314507
257.435455	28.578102	-82.066147	-91.939850
257.893372	-60.787434	-15.005013	-119.287926
258.351196	-53.335133	-89.522133	29.727695
258.808990	-48.367363	-10.040493	-67.089203
259.266754	-70.725372	-111.895851	-5.008761
259.724487	-55.819035	-101.950867	-99.397110
260.182190	-43.400158	-131.790985	-67.089203
260.639832	-28.500927	-74.611115	-69.573830
261.097443	-28.500927	-59.703789	-22.384657
261.554993	-75.694908	-37.350140	-42.249157
262.012512	-40.916641	2.368707	-39.765694
262.469971	-13.605341	-54.735619	-57.151890
262.927429	-6.159030	-12.522700	-64.604683
263.384827	-11.123223	-39.833500	27.247158
263.842194	-11.123223	-42.316833	4.918042
264.299530	-85.635391	-0.112843	-24.867386
264.756805	-60.787434	-52.251621	-79.513130
265.214050	-75.694908	-39.833500	-22.384657
265.671234	-58.303181	-24.935040	-22.384657
266.128387	-63.271660	-22.452444	29.727695
266.585510	-23.535265	2.368707	-39.765694
267.042572	-8.641074	24.698919	-39.765694
267.499573	-8.641074	-10.040493	-52.183937
267.956604	21.136166	-37.350140	-49.700047
268.413574	6.249354	-54.735619	-52.183937
268.870483	-48.367363	7.331765	-29.833023
269.327362	-63.271660	-62.188099	-54.667793
269.784180	-75.694908	-7.558390	-104.369240
270.240936	-75.694908	-72.126274	-34.799213
270.697693	-40.916641	-67.156906	-64.604683
271.154419	-70.725372	-42.316833	-9.972857
271.611053	-33.466869	-52.251621	-44.732727
272.067688	-147.802048	-32.383865	-106.855324
272.524292	-58.303181	9.813137	-9.972857
272.980835	-45.883778	-77.095932	-32.316067
273.437347	-78.179901	-49.767868	-62.120270
273.893799	3.767967	-32.383865	-54.667793
274.350250	6.249354	19.737318	-2.526870
274.806610	-40.916641	4.850288	74.359055
275.262939	-11.123223	-94.493279	19.805056
275.719238	-45.883778	-37.350140	-81.998291
276.175507	-53.335133	-42.316833	-7.490757
276.631714	-33.466869	-62.188099	-34.799213
277.087891	-33.466869	-2.594633	27.247158
277.544067	-45.883778	-54.735619	22.285906
278.000122	-100.549232	-84.551277	37.168556
278.456177	-26.018044	-119.355682	-64.604683
278.912201	8.730772	-12.522700	-22.384657
279.368164	-70.725372	-99.464981	-34.799213
279.824097	-120.440453	-67.156906	-49.700047
280.279968	-78.179901	-92.007721	-27.350220
280.735840	-55.819035	-22.452444	-42.249157
281.191620	-11.123223	12.294271	74.359055
281.647400	-28.500927	-52.251621	-9.972857
282.103149	-65.756126	-2.594633	-72.058434
282.558838	-83.150078	-54.735619	-59.636093
283.014465	-3.677091	29.659971	14.843178
283.470062	6.249354	-62.188099	-64.604683
283.925629	-18.570162	-47.284084	-77.028214
284.381134	-68.240692	-24.935040	-57.151890
284.836639	-53.335133	-111.895851	12.362017
285.292053	-11.123223	17.256495	-54.667793
285.747467	23.616825	-47.284084	-111.828094
286.202820	-63.271660	27.179428	-62.120270
286.658142	-50.851192	-0.112843	-19.902033
287.113434	-78.179901	-17.487295	-96.911201
287.568634	-88.120804	24.698919	-17.419649
288.023804	-78.179901	-5.076527	-2.526870
288.478973	-6.159030	-22.452444	-79.513130
288.934113	-85.635391	-64.672516	12.362017
289.389130	-83.150078	-69.641533	-2.526870
289.844208	-55.819035	-27.417875	-89.454269
290.299164	-38.433235	-44.800404	-34.799213
290.754089	-122.927231	-79.580978	-24.867386
291.208984	-28.500927	-19.969816	34.688328
291.663879	-1.195390	-54.735619	-17.419649
292.118683	53.377872	-87.036652	34.688328
292.573456	6.249354	19.737318	32.207996
293.028198	-58.303181	-57.219715	71.880371
293.482849	33.538830	-0.112843	-0.045218
293.937561	8.730772	19.737318	-17.419649
294.392151	43.459179	-89.522133	-34.799213
294.846741	-40.916641	-24.935040	-72.058434
295.301239	28.578102	-49.767868	-9.972857
295.755737	-33.466869	-79.580978	-49.700047
296.210175	-48.367363	-32.383865	-14.937236
296.664581	-18.570162	-87.036652	-14.937236
297.118958	-117.953644	-49.767868	-96.911201
297.573242	-45.883778	-15.005013	-54.667793
298.027557	1.286340	-77.095932	-49.700047
298.481812	21.136166	-24.935040	-77.028214
298.935974	38.499279	-104.436981	-42.249157
299.390137	-78.179901	-44.800404	-49.700047
299.844238	-105.521469	9.813137	-69.573830
300.298340	-35.950069	-10.040493	-77.028214
300.752350	-78.179901	-15.005013	61.964752
301.206360	-8.641074	-24.935040	-37.282333
301.660278	-35.950069	-96.979080	-69.573830
302.114197	-6.159030	-19.969816	-79.513130
302.568054	-35.950069	-96.979080	7.399381
303.021881	-23.535265	-74.611115	-5.008761
303.475677	3.767967	-2.594633	-64.604683
303.929413	-13.605341	-44.800404	-79.513130
304.383118	-1.195390	-52.251621	22.285906
304.836761	-28.500927	-99.464981	-69.573830
305.290375	-28.500927	-92.007721	-64.604683
305.743958	-43.400158	-19.969816	-47.216267
306.197510	-33.466869	22.218170	-124.261635
306.650970	-26.018044	12.294271	-69.573830
307.104431	-30.983778	-22.452444	-22.384657
307.557800	26.097515	-101.950867	-0.045218
308.011169	-55.819035	-84.551277	-42.249157
308.464508	3.767967	-22.452444	-116.801163
308.917755	-55.819035	-77.095932	-14.937236
309.371063	-70.725372	-34.866882	-42.249157
309.824219	-3.677091	-84.551277	9.880751
310.277374	-65.756126	-99.464981	-86.968925
310.730499	13.693295	24.698919	19.805056
311.183563	-3.677091	-52.251621	-27.350220
311.636597	11.212086	-32.383865	4.918042
312.089569	-3.677091	-57.219715	-37.282333
312.542511	-1.195390	-12.522700	7.399381
312.995422	-21.052593	-52.251621	17.324100
313.448273	-40.916641	-69.641533	-17.419649
313.901093	28.578102	-54.735619	-0.045218
314.353882	33.538830	-34.866882	-54.667793
314.806580	-80.664864	19.737318	-47.216267
315.259308	-70.725372	17.256495	-42.249157
315.711975	11.212086	-2.594633	-34.799213
316.164581	-70.725372	-77.095932	-7.490757
316.617126	36.019108	-24.935040	7.399381
317.069672	3.767967	-44.800404	-59.636093
317.522156	50.898319	-62.188099	-64.604683
317.974579	-6.159030	-32.383865	34.688328
318.427002	1.286340	24.698919	-2.526870
318.879333	-30.983778	-57.219715	44.608482
319.331665	3.767967	-57.219715	-86.968925
319.783936	-45.883778	-5.076527	-47.216267
320.236176	-68.240692	-7.558390	-2.526870
320.688354	18.655268	-29.900818	-2.526870
321.140503	-68.240692	-37.350140	-34.799213
321.592651	-28.500927	-0.112843	-54.667793
322.044647	3.767967	-111.895851	-22.384657
322.496704	-53.335133	-37.350140	-32.316067
322.948639	-30.983778	12.294271	-5.008761
323.400604	-35.950069	-34.866882	-91.939850
323.852509	-18.570162	-64.672516	-94.425545
324.304352	-28.500927	-37.350140	-72.058434
324.756165	-16.087700	-34.866882	9.880751
325.207916	-33.466869	-47.284084	-14.937236
325.659668	-13.605341	-2.594633	-94.425545
326.111328	-16.087700	-64.672516	14.843178
326.562988	-95.577576	-12.522700	-12.454926
327.014557	-1.195390	7.331765	-17.419649
327.466156	23.616825	-109.409546	-19.902033
327.917664	-63.271660	-124.329529	-62.120270
328.369110	-85.635391	-15.005013	57.006393
328.820557	80.645767	-7.558390	-27.350220
329.271942	-26.018044	2.368707	-24.867386
329.723297	55.857323	-24.935040	-109.341660
330.174561	-26.018044	-64.672516	44.608482
330.625854	-30.983778	4.850288	-86.968925
331.077026	8.730772	34.620743	17.324100
331.528229	-60.787434	-17.487295	-14.937236
331.979370	-3.677091	-19.969816	-17.419649
332.430450	-13.605341	-42.316833	-9.972857
332.881500	-63.271660	12.294271	-32.316067
333.332489	-78.179901	-27.417875	-39.765694
333.783478	-8.641074	-37.350140	22.285906
334.234406	-28.500927	-52.251621	-42.249157
334.685303	-43.400158	-72.126274	-0.045218
335.136078	-38.433235	-64.672516	94.184425
335.586914	-50.851192	-74.611115	66.922699
336.037659	13.693295	44.540775	7.399381
336.488342	-90.606194	44.540775	54.526989
336.939026	40.979210	-19.969816	-9.972857
337.389648	40.979210	-44.800404	-5.008761
337.840240	13.693295	69.334038	-59.636093
338.290771	-78.179901	-22.452444	64.443848
338.741272	-85.635391	-29.900818	2.436464
339.191681	-38.433235	-0.112843	49.567875
339.642120	-53.335133	2.368707	96.662186
340.092468	40.979210	-44.800404	27.247158
340.542816	-18.570162	42.060989	-14.937236
340.993103	-70.725372	14.775435	32.207996
341.443329	-13.605341	2.368707	7.399381
341.893555	-53.335133	81.726685	71.880371
342.343689	-48.367363	-2.594633	96.662186
342.793793	26.097515	49.500305	94.184425
343.243866	-1.195390	-10.040493	74.359055
343.693878	3.767967	2.368707	153.621719
344.143890	-11.123223	9.813137	89.228729
344.593842	-65.756126	136.224396	188.266800
345.043732	-23.535265	74.291382	114.003395
345.493591	-55.819035	7.331765	99.139839
345.943359	-21.052593	59.417999	89.228729
346.393158	-55.819035	84.204964	128.863281
346.842896	1.286340	69.334038	116.480347
347.292542	-13.605341	126.319366	133.815857
347.742218	-28.500927	44.540775	123.910446
348.191803	40.979210	96.594536	131.339630
348.641357	-50.851192	22.218170	138.767899
349.090881	-40.916641	111.458847	185.792770
349.540314	-55.819035	84.204964	118.957054
349.989777	-18.570162	193.146866	168.471924
350.439148	-55.819035	262.372711	143.719528
350.888489	-16.087700	582.788574	220.419525
351.337799	-53.335133	960.367188	168.471924
351.787048	-60.787434	1552.148315	198.161636
352.236267	-50.851192	2081.677979	185.792770
352.685425	-80.664864	2252.637939	284.674835
353.134552	-40.916641	2146.730713	240.197556
353.583649	-58.303181	1818.548950	257.497833
354.032684	-135.363297	1323.781616	324.183807
354.481659	-53.335133	894.317383	353.799133
354.930634	-63.271660	717.877747	489.360474
355.379517	-50.851192	668.785889	484.435883
355.828430	75.688812	415.386169	548.425476
356.277222	-11.123223	449.886719	639.380615
356.726013	-30.983778	437.567322	887.041321
357.174774	8.730772	375.934174	1009.319824
357.623444	-50.851192	412.921112	1075.263062
358.072113	-16.087700	361.133423	1158.217773
358.520721	-13.605341	457.277130	1065.497681
358.969299	-43.400158	348.796875	1006.876282
359.417786	-18.570162	375.934174	894.384094
359.866302	-120.440453	427.709869	771.904663
360.314697	-48.367363	375.934174	965.323975
360.763123	-115.466934	440.031158	1038.635376
361.211456	-88.120804	422.780579	1009.319824
361.659760	-45.883778	373.467590	1070.380493
362.108032	-50.851192	383.333374	1226.463013
362.556244	-30.983778	356.198975	1384.650146
363.004456	6.249354	341.393646	1559.491821
363.452576	-8.641074	417.851166	1610.413818
363.900696	8.730772	454.813934	2088.974365
364.348663	-90.606194	710.516113	2703.805420
364.796722	-38.433235	1304.314697	3014.459961
365.244690	-13.605341	1775.016235	3062.163818
365.692596	-93.091835	1864.475098	3055.009766
366.140472	16.174267	1447.766357	2804.281738
366.588287	-8.641074	945.694519	2173.285400
367.036102	63.294918	749.768372	1687.946777
367.483826	1.286340	479.443848	1360.335083
367.931549	-88.120804	427.709869	1284.909302
368.379181	-35.950069	378.400665	1163.094604
368.826843	-45.883778	383.333374	1165.532837
369.274384	-35.950069	452.350372	1199.659912
369.721924	-70.725372	425.245270	1170.408936
370.169403	-68.240692	474.518494	1119.191895
370.616821	-60.787434	479.443848	1050.846680
371.064270	-58.303181	435.103088	1128.950439
371.511566	-85.635391	417.851166	1194.785645
371.958923	-68.240692	449.886719	1214.281006
372.406158	-93.091835	501.602966	1219.153931
372.853424	36.019108	447.422974	1253.256348
373.300568	3.767967	511.448914	1177.722778
373.747711	-103.035301	494.217346	1116.752319
374.194794	-28.500927	521.293640	1026.421997
374.641846	-80.664864	631.943420	1094.790405
375.088898	-75.694908	617.200806	1155.779175
375.535828	18.655268	820.855652	1250.821289
375.982758	-60.787434	1033.683594	1243.514526
376.429596	6.249354	1311.615601	1357.903076
376.876465	-38.433235	1949.009521	1331.146851
377.323242	-21.052593	2454.471924	1221.590332
377.769989	-55.819035	2856.804443	1114.312378
378.216675	-35.950069	2933.243652	1282.474976
378.663330	38.499279	2880.698242	1336.012207
379.109985	28.578102	2763.560059	1374.924927
379.556519	-38.433235	2401.655029	1423.537842
380.003052	33.538830	1922.450928	1523.098755
380.449524	-83.150078	1396.738403	1493.972290
380.895996	-85.635391	1138.640991	1489.116699
381.342377	-105.521469	847.800415	1457.548584
381.788727	16.174267	641.770203	1418.678101
382.235046	-40.916641	550.818359	1510.963989
382.681274	-60.787434	491.755280	1612.838013
383.127533	-35.950069	496.679321	1842.789795
383.573669	-28.500927	508.987518	1910.441772
384.019836	-112.980476	440.031158	1905.611328
384.465912	-73.210014	417.851166	1702.475708
384.911957	3.767967	398.128967	1510.963989
385.357971	-50.851192	435.103088	1464.834839
385.803925	-33.466869	385.799591	1282.474976
386.249847	-55.819035	479.443848	1318.981567
386.695679	-35.950069	380.867065	1697.633179
387.141541	-35.950069	508.987518	1835.537842
387.587311	13.693295	479.443848	1944.247192
388.033051	-45.883778	422.780579	1946.661499
388.478729	38.499279	489.293396	1866.957764
388.924408	-1.195390	442.495209	1864.541138
389.369995	-18.570162	432.638794	1854.874390
389.815552	-53.335133	395.663208	2437.735840
390.261078	-120.440453	484.368805	3661.287109
390.706543	-43.400158	444.959137	4856.501953
391.152008	-73.210014	454.813934	5408.574219
391.597351	-1.195390	533.597168	5282.481445
392.042725	-11.123223	496.679321	5086.068848
392.487976	-95.577576	444.959137	4685.199707
392.933289	-58.303181	469.593048	3940.636475
393.378479	-35.950069	474.518494	3195.611572
393.823639	-55.819035	462.203766	2914.205078
394.268768	-43.400158	484.368805	2737.309326
394.713837	-30.983778	558.197327	2655.921387
395.158905	18.655268	587.705750	2365.690918
395.603851	-6.159030	533.597168	2324.839844
396.048798	-45.883778	449.886719	2221.426270
396.493683	-60.787434	553.278198	2173.285400
396.938568	-73.210014	494.217346	2074.512695
397.383392	-63.271660	558.197327	1842.789795
397.828156	-45.883778	582.788574	1864.541138
398.272888	-95.577576	661.418945	1886.286621
398.717560	-63.271660	614.743347	2192.544922
399.162201	-78.179901	624.572693	2418.529297
399.606781	-35.950069	575.412109	2622.387939
400.051361	-21.052593	607.370667	2852.089600
400.495819	-100.549232	555.737915	3174.176758
400.940308	-30.983778	582.788574	3637.579102
401.384705	-30.983778	526.215149	4959.629395
401.829102	-26.018044	580.329834	6081.159180
402.273438	-38.433235	639.313660	7197.128906
402.717682	6.249354	592.622314	7688.468262
403.161926	1.286340	609.828186	7431.550781
403.606110	-16.087700	597.538818	7233.928711
404.050293	-26.018044	1011.696716	6747.771973
404.494385	-45.883778	1404.030029	6943.840332
404.938446	-50.851192	1484.194702	6292.176758
405.382477	-58.303181	1379.721436	6016.158203
405.826447	-112.980476	994.590942	5641.726563
406.270386	-65.756126	776.741272	5025.208008
406.714233	-21.052593	673.696777	4070.592041
407.158081	36.019108	695.790710	3748.959473
407.601868	-63.271660	737.504517	4124.890137
408.045624	-26.018044	818.405518	4706.333008
408.489319	-1.195390	933.465271	4903.389648
408.933014	3.767967	1097.164185	4713.376465
409.376617	-28.500927	1731.459961	4518.343262
409.820190	-43.400158	3195.546387	3954.821289
410.263702	-13.605341	5146.834473	3492.843750
410.707184	-70.725372	6343.074219	2854.479736
411.150635	-68.240692	6479.639648	2603.220703
411.594025	-55.819035	5604.389160	2466.537354
412.037384	-23.535265	4922.075195	2332.050293
412.480682	38.499279	4240.416016	2507.323975
412.923981	-75.694908	3514.146484	2985.825928
413.367126	-53.335133	2823.342529	3281.304199
413.810333	-26.018044	2173.219727	3606.751221
414.253479	8.730772	1612.771851	3973.730713
414.696533	-13.605341	1136.201782	3997.363281
415.139587	6.249354	948.140198	4240.479980
415.582581	-33.466869	811.054688	4280.554199
416.025543	23.616825	636.856995	4581.824219
416.468414	-35.950069	634.400269	4624.125977
416.911285	-40.916641	644.226379	4287.624512
417.354065	-40.916641	622.115479	3775.010010
417.796875	-6.159030	681.062134	3400.201416
418.239594	-16.087700	479.443848	2935.696533
418.682281	-95.577576	587.705750	2483.333984
419.124908	-65.756126	528.675903	2178.100830
419.567505	73.210320	617.200806	2149.205078
420.010071	-26.018044	531.136597	2168.469727
420.452545	-68.240692	627.029541	2377.702393
420.895020	-30.983778	565.575745	2574.462402
421.337372	-63.271660	538.518066	2868.817139
421.779785	-53.335133	555.737915	3016.845459
422.222107	-48.367363	506.526245	3214.660645
422.664368	-78.179901	516.371460	3409.706787
423.106628	-90.606194	548.358398	3824.724854
423.548798	-30.983778	649.139099	4082.398193
423.990967	-23.535265	658.963074	4748.588379
424.433044	-8.641074	624.572693	4950.257324
424.875092	-50.851192	516.371460	4947.915039
425.317078	-68.240692	617.200806	4689.896484
425.759064	-8.641074	634.400269	4280.554199
426.200989	-55.819035	695.790710	3751.327881
426.642853	-40.916641	631.943420	3200.374268
427.084686	-60.787434	712.970032	2785.151855
427.526459	-6.159030	550.818359	2746.879883
427.968201	23.616825	619.658203	2746.879883
428.409912	-48.367363	720.331421	2730.131104
428.851563	11.212086	705.608215	2930.921631
429.293121	-115.466934	710.516113	2842.530518
429.734711	-108.007599	749.768372	2806.672363
430.176239	1.286340	649.139099	2849.699951
430.617706	-8.641074	666.330322	3186.085449
431.059113	-68.240692	698.245239	3812.890137
431.500488	-43.400158	683.517151	4506.583496
431.941833	-55.819035	676.151794	4823.669434
432.383087	-35.950069	614.743347	4833.050781
432.824341	-58.303181	725.238525	4692.244629
433.265533	-1.195390	688.427002	3943.000732
433.706726	-43.400158	717.877747	3473.847168
434.147827	-95.577576	757.125732	3083.623047
434.588867	-68.240692	882.078918	3078.854492
435.029877	-3.677091	1187.406982	4527.750000
435.470825	8.730772	2420.864746	6162.362793
435.911804	-73.210014	3483.281006	7123.496582
436.352661	13.693295	3409.642090	7125.798340
436.793518	-117.953644	2464.072021	7031.396484
437.234283	-45.883778	1975.560059	7001.449219
437.675049	-13.605341	1649.123535	5804.665039
438.115723	31.058451	1184.969360	4570.071289
438.556396	-21.052593	1060.547729	3841.291504
438.997040	-45.883778	1119.125488	3597.263428
439.437561	-38.433235	1028.798340	3514.210938
439.878113	-28.500927	1206.904297	3307.473877
440.318573	-21.052593	1028.798340	3209.899170
440.759033	-40.916641	1075.196655	3445.345459
441.199341	-40.916641	1172.780518	3473.847168
441.639709	-40.916641	1126.444458	3355.037109
442.079956	6.249354	1138.640991	3209.899170
442.520264	-68.240692	1202.030396	3000.144043
442.960510	38.499279	1194.719116	2904.651367
443.400604	28.578102	1233.704712	2706.198486
443.840759	-53.335133	1316.482056	2605.616699
444.280762	1.286340	1282.408325	2456.937744
444.720825	-53.335133	1170.342529	2247.892578
445.160767	-45.883778	1099.604614	2368.093262
445.600739	-90.606194	1153.274170	2454.537842
446.040558	-18.570162	1141.080078	2488.132568
446.480438	-93.091835	1131.323120	2247.892578
446.920258	-90.606194	1209.341187	2247.892578
447.359955	-1.195390	1233.704712	2199.766357
447.799713	3.767967	1262.930908	2286.374512
448.239319	-8.641074	1199.593262	2298.396973
448.678955	58.336536	1389.445679	2512.121094
449.118500	-65.756126	1663.659912	2873.595703
449.558014	-28.500927	2074.447021	2847.310547
449.997498	-68.240692	3090.709961	2969.119141
450.436951	8.730772	5867.390625	2804.281738
450.876343	45.939041	10570.519531	2789.934326
451.315674	-73.210014	15486.738281	2746.879883
451.754974	-80.664864	18438.767578	2593.635498
452.194183	-50.851192	18021.242188	2526.511230
452.633392	-48.367363	15993.146484	2401.720215
453.072510	-33.466869	14227.466797	2348.872314
453.511688	-28.500927	12223.409180	2380.104492
453.950684	-88.120804	10420.025391	2552.887451
454.389740	-53.335133	8599.638672	2584.049805
454.828735	-58.303181	6904.587402	2538.501709
455.267639	-75.694908	5125.781738	2751.664795
455.706543	36.019108	3758.368408	2940.472168
456.145325	-43.400158	2837.684570	2969.119141
456.584137	-70.725372	2062.393799	3043.085205
457.022858	-6.159030	1622.467285	3026.388184
457.461578	-38.433235	1340.811157	3088.391113
457.900208	16.174267	1163.028076	2825.798340
458.338867	-16.087700	1072.755249	2564.874023
458.777405	-63.271660	967.702087	2715.772217
459.215912	-38.433235	938.357300	2468.936768
459.654388	-33.466869	972.591736	2300.800781
460.092773	-58.303181	806.153992	2255.109131
460.531189	-90.606194	803.703369	2288.779053
460.969513	-68.240692	764.482056	2288.779053
461.407806	-33.466869	710.516113	2274.350830
461.846008	-45.883778	641.770203	1910.441772
462.284241	13.693295	656.507385	1624.957031
462.722351	-3.677091	614.743347	1583.744751
463.160461	-68.240692	803.703369	1515.818359
463.598541	6.249354	656.507385	1438.115723
464.036530	-43.400158	612.285767	1506.109619
464.474518	-26.018044	725.238525	1569.193970
464.912384	-3.677091	705.608215	1571.619141
465.350281	-35.950069	693.336182	1622.533325
465.788086	-8.641074	825.755554	1879.038940
466.225891	43.459179	1038.568848	2327.243408
466.663605	-38.433235	1262.930908	2641.551758
467.101318	-50.851192	1323.781616	3162.266602
467.539001	-40.916641	1360.268799	3383.564209
467.976563	26.097515	1304.314697	3385.940918
468.414124	-30.983778	1070.313843	3236.086670
468.851593	21.136166	945.694519	3345.526123
469.289063	-43.400158	960.367188	2966.732422
469.726440	-63.271660	911.447327	2983.439697
470.163849	11.212086	813.505066	3269.406982
470.601135	-11.123223	889.422302	3895.706055
471.038422	-120.440453	823.305603	4400.688965
471.475677	-21.052593	766.934082	4706.333008
471.912811	-23.535265	759.578064	5193.668945
472.350006	43.459179	788.998047	6793.932617
472.787048	-53.335133	855.147400	9178.873047
473.224121	-33.466869	752.220947	11713.700195
473.661072	36.019108	752.220947	14456.475586
474.098053	8.730772	752.220947	16577.875000
474.534943	-13.605341	744.863037	16965.167969
474.971802	1.286340	943.249084	15368.328125
475.408630	-28.500927	1053.222168	13515.156250
475.845367	-33.466869	1099.604614	10915.938477
476.282104	-60.787434	860.044922	8310.332031
476.718750	6.249354	793.900024	5790.707031
477.155426	-65.756126	872.286926	5018.183594
477.591949	31.058451	742.410461	4854.157227
478.028503	-55.819035	710.516113	4872.914551
478.464966	-65.756126	764.482056	4701.637207
478.901428	-23.535265	744.863037	4605.327637
479.337860	21.136166	867.390259	4548.912598
479.774170	-53.335133	835.554077	4037.527344
480.210510	13.693295	757.125732	3492.843750
480.646698	-38.433235	722.785034	3288.442627
481.082947	1.286340	771.837830	3395.448242
481.519073	-38.433235	867.390259	3476.221680
481.955200	-33.466869	781.644104	3879.147949
482.391266	-35.950069	921.233948	4833.050781
482.827301	-73.210014	811.054688	5644.055664
483.263306	-50.851192	860.044922	6340.822266
483.699188	8.730772	779.192566	7045.215332
484.135101	-60.787434	833.104553	7539.426270
484.570923	-23.535265	909.000488	7351.159668
485.006744	11.212086	955.476624	7054.427734
485.442413	-48.367363	972.591736	6458.880859
485.878174	-73.210014	940.803223	5855.828613
486.313782	-95.577576	928.572876	5298.834473
486.749390	-38.433235	975.036438	5034.573242
487.184998	-70.725372	975.036438	4945.572266
487.620453	-105.521469	904.106384	4818.978516
488.055939	-53.335133	1001.922302	4903.389648
488.491333	-55.819035	916.340698	4701.637207
488.926727	-68.240692	982.369812	4318.258301
489.362030	13.693295	1084.960815	4327.681641
489.797302	-45.883778	1060.547729	4101.285645
490.232513	-58.303181	1087.401733	3886.244385
490.667755	-13.605341	989.702698	4186.239258
491.102905	-11.123223	1087.401733	4280.554199
491.537964	-6.159030	1060.547729	4341.815918
491.973022	-21.052593	1194.719116	4511.287598
492.407990	-23.535265	1075.196655	4607.677246
492.842957	-35.950069	1121.565186	4654.666992
493.277832	-103.035301	1067.872437	4765.016602
493.712738	-38.433235	1082.519775	5086.068848
494.147491	13.693295	1114.245728	5167.947754
494.582275	-38.433235	1092.283325	5284.817871
495.017029	-30.983778	1131.323120	5259.116211
495.451660	-6.159030	1199.593262	5508.885742
495.886292	-45.883778	1097.164185	5086.068848
496.320831	-60.787434	1321.348633	4391.271484
496.755402	48.418663	1588.527954	4433.644531
497.189850	-85.635391	2190.072266	5043.937988
497.624298	-35.950069	3333.571289	6287.542480
498.058655	-33.466869	5095.365234	7167.220703
498.493042	-80.664864	5643.992676	8020.339355
498.927368	-50.851192	5324.463379	8260.142578
499.361572	60.815777	4056.357666	8184.822754
499.795807	-58.303181	3321.680176	7690.759766
500.229919	-28.500927	2725.279541	6523.649902
500.664063	-43.400158	2271.880371	5555.513184
501.098083	-58.303181	1743.561401	5142.220215
501.532104	3.767967	1416.181519	5429.576660
501.966064	-100.549232	1335.945923	5927.886719
502.399994	-26.018044	1223.960327	6403.337402
502.833893	-45.883778	1155.712769	6532.900391
503.267700	-28.500927	1265.365601	6636.916016
503.701477	-40.916641	1148.396606	6987.625977
504.135193	-70.725372	1106.925659	6507.460938
504.568909	16.174267	1136.201782	6185.553711
505.002502	-18.570162	1060.547729	5853.503906
505.436127	-117.953644	1133.762573	5522.875488
505.869629	28.578102	1102.045166	6823.928223
506.303162	-93.091835	1109.365845	9626.935547
506.736603	-90.606194	1033.683594	12361.240234
507.169983	-108.007599	1065.430908	15098.333008
507.603363	-78.179901	1070.313843	19904.037109
508.036621	-16.087700	1138.640991	28361.673828
508.469940	-50.851192	1192.281738	34834.050781
508.903107	-95.577576	1241.012451	36687.917969
509.336304	-75.694908	1219.087524	34217.835938
509.769379	-48.367363	1182.531738	31239.107422
510.202484	-18.570162	1270.235474	30044.087891
510.635529	-35.950069	1416.181519	24844.808594
511.068481	-21.052593	1394.307617	18362.316406
511.501434	-43.400158	1416.181519	14636.861328
511.934265	31.058451	1411.321289	12110.067383
512.367126	-68.240692	1350.540405	8954.307617
512.799927	-135.363297	1408.890991	6583.763184
513.232605	-26.018044	1287.277100	5597.462891
513.665344	-26.018044	1316.482056	4621.776367
514.097961	-21.052593	1262.930908	3850.757080
514.530579	-38.433235	1547.296631	3580.658447
514.963135	-68.240692	1881.388916	4117.809570
515.395691	13.693295	2319.967041	4450.118652
515.828064	-55.819035	2310.352051	4851.812012
516.260498	-103.035301	1939.352905	4645.270508
516.692871	-48.367363	1857.225342	4473.649414
517.125183	40.979210	1733.880493	4110.728027
517.557373	-95.577576	1678.193359	4054.060791
517.989624	-58.303181	1629.738159	3642.321045
518.421753	-65.756126	1617.619629	3143.207275
518.853943	3.767967	1484.194702	2964.345703
519.286072	-98.063286	1641.854614	3133.676270
519.718018	6.249354	1707.252319	3580.658447
520.150024	-3.677091	1784.692017	3902.801514
520.581909	-63.271660	1719.357056	4997.107422
521.013855	-33.466869	1835.472046	5951.122559
521.445679	-8.641074	1849.974854	6934.619629
521.877502	-30.983778	1871.724365	7056.729980
522.309204	-48.367363	1806.458740	6676.188477
522.740906	-13.605341	1828.219849	6243.512695
523.172546	-70.725372	1837.889404	6064.912598
523.604187	-21.052593	1779.854370	5534.532715
524.035767	-48.367363	1712.094482	4786.135254
524.467224	38.499279	1540.018188	3860.221680
524.898682	-50.851192	1506.043457	3450.096191
525.330078	-40.916641	1421.041748	4136.691406
525.761475	-40.916641	1462.339966	4407.751953
526.192749	-26.018044	1365.132202	4558.316895
526.624023	-70.725372	1335.945923	4070.592041
527.055237	-6.159030	1331.080444	3666.028320
527.486389	18.655268	1362.700684	3654.175293
527.917542	-40.916641	1374.858643	3921.720703
528.348572	16.174267	1377.290039	3746.590820
528.779663	-85.635391	1472.053955	3862.587402
529.210571	-35.950069	1527.886108	3931.178711
529.641541	-23.535265	1639.431519	3857.855225
530.072388	-85.635391	1692.724121	4094.203369
530.503235	23.616825	1823.384399	4238.122559
530.934082	-28.500927	1874.140625	4183.879883
531.364746	-75.694908	1956.251465	3881.513428
531.795532	-40.916641	2163.588135	4037.527344
532.226135	-18.570162	2600.759033	3912.261475
532.656738	-6.159030	2997.692627	3995.000488
533.087280	-13.605341	3428.650635	4537.156250
533.517822	48.418663	4950.193848	5389.902344
533.948242	-28.500927	8535.893555	6609.187012
534.378662	-13.605341	20527.914063	9312.537109
534.809082	-58.303181	40140.511719	12112.291016
535.239319	8.730772	58752.703125	14060.095703
535.669617	-103.035301	64672.980469	14632.462891
536.099792	-6.159030	60678.925781	13517.367188
536.529968	-68.240692	52702.558594	11655.728516
536.960083	-43.400158	46051.652344	10745.596680
537.390137	-33.466869	40421.832031	9803.061523
537.820190	-13.605341	35558.386719	8581.491211
538.250183	13.693295	30081.865234	7063.639160
538.680115	-11.123223	25659.267578	6814.699707
539.109985	-23.535265	21137.125000	7853.364746
539.539795	-23.535265	17479.056641	8535.956055
539.969543	-83.150078	15025.800781	7667.841797
540.399292	-43.400158	12185.617188	6155.404297
540.828979	-70.725372	9518.382813	6053.306152
541.258606	-68.240692	6932.252441	5888.376465
541.688171	-40.916641	5165.544922	5233.409180
542.117737	-45.883778	3952.392578	4612.376953
542.547302	-68.240692	3059.714111	4628.825195
542.976685	-38.433235	2579.190430	4830.706055
543.406128	-65.756126	2175.627441	5504.222168
543.835388	-63.271660	1903.130127	6122.927734
544.264771	-103.035301	1707.252319	7296.005859
544.693970	-26.018044	1557.000000	8453.955078
545.123230	-68.240692	2026.223877	10289.688477
545.552307	26.097515	5753.416016	15012.681641
545.981506	-60.787434	10325.610352	19963.123047
546.410583	-21.052593	11666.816406	22819.681641
546.839539	-63.271660	8088.835938	21152.531250
547.268555	-26.018044	5506.489746	17671.517578
547.697449	-45.883778	4663.998535	18292.365234
548.126282	-55.819035	4053.996094	20828.115234
548.555054	-21.052593	3166.965576	19153.742188
548.983887	-16.087700	2129.869873	14792.958008
549.412598	40.979210	1557.000000	11836.268555
549.841309	-58.303181	1481.766602	9963.193359
550.269958	-16.087700	1270.235474	9498.092773
550.698486	-73.210014	1209.341187	8790.755859
551.127075	-53.335133	1287.277100	8563.278320
551.555481	-6.159030	1124.004883	10527.917969
551.983948	-105.521469	1289.711182	12307.921875
552.412292	-60.787434	1508.470703	12818.275391
552.840698	-43.400158	1724.198486	11735.992188
553.268860	-35.950069	1811.295166	10808.375000
553.697205	-16.087700	1712.094482	10109.641602
554.125366	-63.271660	1576.403442	9174.340820
554.553467	-45.883778	1399.168823	7706.800781
554.981628	-53.335133	1343.243652	6368.610352
555.409607	-53.335133	1377.290039	5497.225586
555.837646	-33.466869	1260.495850	5473.902344
556.265564	-50.851192	1270.235474	5350.214355
556.693481	36.019108	1197.156128	5392.236328
557.121338	-117.953644	1145.958008	5310.513672
557.549133	6.249354	1165.466187	5268.463379
557.976929	18.655268	1143.519043	5329.198730
558.404602	18.655268	1233.704712	5181.978516
558.832275	-60.787434	1316.482056	5541.527344
559.259888	-21.052593	1184.969360	5788.381348
559.687439	-21.052593	1287.277100	5354.884277
560.114929	-48.367363	1299.447144	4884.636230
560.542419	-105.521469	1158.151245	4722.767578
560.969788	-28.500927	1211.777954	4598.276855
561.397156	6.249354	1219.087524	4473.649414
561.824524	-63.271660	1216.651001	4039.889160
562.251770	-11.123223	1189.844360	3502.341064
562.679016	-40.916641	1214.214355	3371.678955
563.106140	-63.271660	1223.960327	3150.354980
563.533264	-33.466869	1287.277100	3143.207275
563.960327	-16.087700	1199.593262	3283.684082
564.387329	-83.150078	1223.960327	3452.471436
564.814331	-6.159030	1233.704712	3720.532959
565.241272	-8.641074	1350.540405	4106.007324
565.668213	-40.916641	1377.290039	4247.553223
566.094971	-45.883778	1493.906128	4814.287109
566.521790	-120.440453	1866.891479	7436.143555
566.948425	-95.577576	2368.027832	10465.026367
567.375183	40.979210	3150.289795	12933.475586
567.801819	-23.535265	6023.060547	14937.992188
568.228394	-43.400158	11553.053711	17920.744141
568.654846	-43.400158	18552.441406	21279.722656
569.081421	85.602165	19742.058594	24305.576172
569.507874	-58.303181	16242.855469	23822.185547
569.934265	21.136166	11479.400391	21551.753906
570.360596	-117.953644	9020.064453	22078.703125
570.786865	-100.549232	7523.303223	22991.367188
571.213074	26.097515	5543.794434	21984.248047
571.639282	-78.179901	3862.522705	20757.994141
572.065430	-73.210014	2627.114258	19173.423828
572.491516	6.249354	2031.047241	16413.703125
572.917603	-1.195390	1653.969360	13921.218750
573.343567	-50.851192	1544.870605	11157.687500
573.769531	-60.787434	1416.181519	8711.181641
574.195435	-23.535265	1304.314697	6733.920410
574.621277	-120.440453	1321.348633	5205.358887
575.047119	-73.210014	1297.013428	3966.640137
575.472839	8.730772	1350.540405	3758.432861
575.898560	-50.851192	1552.148315	4325.325684
576.324158	-30.983778	2084.088379	5804.665039
576.749817	-73.210014	2995.306152	7486.646973
577.175293	-95.577576	3328.814941	7830.473633
577.600830	-8.641074	3016.780029	7693.052246
578.026306	-21.052593	2464.072021	7183.325684
578.451721	-70.725372	2890.254150	7615.114746
578.877136	-3.677091	3502.275879	8558.725586
579.302429	-40.916641	3656.480957	8879.370117
579.727661	-28.500927	3155.054443	8047.767578
580.152832	-78.179901	2396.851807	6694.665527
580.578064	-16.087700	2223.767090	6153.084961
581.003113	16.174267	2269.474854	5634.739258
581.428223	-1.195390	2139.505127	4835.396973
581.853271	-65.756126	1811.295166	3758.432861
582.278198	-55.819035	1673.349121	3093.158936
582.703125	11.212086	1738.721069	2766.017578
583.127930	-6.159030	1658.814697	2317.628662
583.552795	-45.883778	1842.723877	2154.021484
583.977539	-21.052593	2093.728760	2064.870361
584.402283	-28.500927	2202.107422	2038.347900
584.826965	13.693295	2377.636475	2202.173096
585.251587	-21.052593	2808.998291	2327.243408
585.676208	-63.271660	2978.600830	2478.535156
586.100647	-73.210014	3559.240234	2873.595703
586.525208	-48.367363	4454.761230	3250.368408
586.949524	26.097515	6088.058105	4023.353271
587.373962	-60.787434	8947.433594	5630.080078
587.798218	-105.521469	15552.540039	9787.263672
588.222534	31.058451	24073.685547	16100.551758
588.646729	-30.983778	27839.000000	23028.796875
589.070984	-80.664864	25825.445313	28593.035156
589.495117	-60.787434	25440.001953	34106.960938
589.919128	-75.694908	32886.281250	40178.785156
590.343201	-98.063286	40771.761719	46478.167969
590.767151	-18.570162	43900.074219	49353.144531
591.191101	-33.466869	42083.140625	46892.582031
591.614990	-63.271660	39258.015625	43709.605469
592.038818	-53.335133	36366.710938	40106.863281
592.462524	-65.756126	34324.203125	37295.023438
592.886292	-43.400158	30711.714844	32477.582031
593.310059	3.767967	27325.580078	28065.863281
593.733582	-73.210014	24298.890625	24338.707031
594.157227	-45.883778	21466.121094	21338.941406
594.580750	-55.819035	19315.509766	19166.863281
595.004272	-93.091835	17181.654297	17336.982422
595.427673	-73.210014	15857.284180	15480.218750
595.851074	-68.240692	14524.623047	14482.879883
596.274353	-18.570162	13548.225586	13338.385742
596.697632	-60.787434	12645.289063	12754.000977
597.120911	-85.635391	11646.746094	12236.807617
597.544067	-40.916641	10938.276367	11842.951172
597.967224	-30.983778	10264.882813	11392.375977
598.390320	-40.916641	9588.458984	10523.426758
598.813354	-55.819035	9128.939453	10327.920898
599.236328	31.058451	8672.453125	10044.322266
599.659241	-8.641074	8305.708984	9785.006836
600.082153	-1.195390	8077.412109	8892.998047
600.505005	-16.087700	7357.989258	8166.556152
600.927795	-65.756126	6842.320313	7809.870605
601.350525	-23.535265	6720.003906	7381.025879
601.773254	-38.433235	6292.113281	6909.261719
602.195862	-21.052593	6210.995605	6574.517090
602.618408	-21.052593	5872.040527	6243.512695
603.040955	-38.433235	5688.239746	6160.042969
603.463440	-13.605341	5322.128418	6048.663086
603.885925	8.730772	5273.072266	5765.114746
604.308350	-3.677091	4936.135254	5462.239746
604.730652	38.499279	4917.388184	5345.544434
605.152893	-13.605341	4617.012695	4842.432129
605.575195	-16.087700	4534.740234	4605.327637
605.997375	-23.535265	4282.846191	4386.562500
606.419495	-28.500927	4091.777832	4065.869141
606.841553	-108.007599	4072.888428	3997.363281
607.263672	-95.577576	3860.156738	3770.273682
607.685608	-35.950069	3812.825439	3767.905762
608.107605	-80.664864	3537.882324	3630.465820
608.529480	-70.725372	3582.965820	3606.751221
608.951294	-78.179901	3473.782227	3509.462891
609.373108	-135.363297	3473.782227	3523.706299
609.794800	-23.535265	3440.529053	3445.345459
610.216553	-78.179901	3580.593994	3416.835693
610.638123	-40.916641	3563.986084	3602.007324
611.059753	-88.120804	3412.018066	3511.837402
611.481262	-16.087700	3138.376709	3383.564209
611.902832	-65.756126	3021.551514	3283.684082
612.324219	-23.535265	3016.780029	3181.322021
612.745605	-85.635391	2856.804443	3069.317139
613.166931	-28.500927	2730.065430	2899.874268
613.588196	-48.367363	2763.560059	2780.368652
614.009460	40.979210	2634.300293	2749.272217
614.430664	-3.677091	2550.424561	2954.796875
614.851807	-50.851192	2942.794434	3314.609619
615.272827	-53.335133	3680.185059	3838.925049
615.693909	-75.694908	4931.448730	4065.869141
616.114929	-73.210014	5118.763672	4457.178711
616.535889	-18.570162	5041.532227	4570.071289
616.956787	48.418663	3720.468506	4457.178711
617.377563	-53.335133	3326.436768	4341.815918
617.798340	-28.500927	2988.147217	4431.291504
618.219055	-88.120804	2980.987793	4490.117676
618.639832	-167.709503	2598.363037	4480.707520
619.060364	-8.641074	2348.806396	4395.980469
619.481018	-65.756126	2108.187012	4513.639160
619.901611	-35.950069	2084.088379	4405.397461
620.322083	11.212086	1874.140625	5287.153809
620.742493	-58.303181	1847.557861	6231.922852
621.162842	-38.433235	1876.556885	6936.924805
621.583191	-55.819035	1801.622192	7077.454102
622.003418	-48.367363	1610.347778	5867.453613
622.423706	-105.521469	1736.300903	5312.849609
622.843872	-63.271660	1683.036987	5074.367188
623.264038	-1.195390	1639.431519	5529.870117
623.684143	-78.179901	1544.870605	6071.875488
624.104126	-40.916641	1537.591797	6588.386230
624.524170	-65.756126	1637.008179	6620.741699
624.944031	18.655268	1520.605835	6053.306152
625.364014	-35.950069	1450.195557	6173.958496
625.783752	-30.983778	1416.181519	6996.841797
626.203552	-38.433235	1435.619995	7254.624512
626.623230	-30.983778	1544.870605	6703.903320
627.042969	-65.756126	1428.331299	5476.235352
627.462585	-40.916641	1554.574219	4929.169434
627.882141	-8.641074	1418.611694	5018.183594
628.301697	-23.535265	1311.615601	4828.360352
628.721130	-11.123223	1372.427246	4198.032715
629.140625	-26.018044	1328.647705	3385.940918
629.559998	-80.664864	1311.615601	3316.988525
629.979309	-103.035301	1389.445679	4506.583496
630.398560	28.578102	1267.800537	5476.235352
630.817810	13.693295	1248.319214	6194.829102
631.237000	-11.123223	1197.156128	6218.013672
631.656067	-18.570162	1206.904297	5203.020996
632.075195	36.019108	1177.656372	4440.705566
632.494202	-33.466869	1221.523926	4539.507813
632.913208	13.693295	1204.467407	4235.764648
633.332092	-33.466869	1148.396606	3378.810059
633.750977	-73.210014	1209.341187	2643.946533
634.169739	-30.983778	1055.664063	2461.737549
634.588562	-6.159030	1121.565186	2531.307373
635.007263	23.616825	1097.164185	2305.609131
635.425964	-65.756126	1004.366028	2108.252686
635.844543	-85.635391	1028.798340	1900.780762
636.263123	-75.694908	1097.164185	1828.285645
636.681641	-103.035301	960.367188	1821.032593
637.100037	-23.535265	977.481079	1997.342651
637.518494	1.286340	1124.004883	2168.469727
637.936829	-53.335133	1048.337891	2473.736084
638.355164	-33.466869	997.034607	2667.895020
638.773438	-88.120804	1004.366028	2370.495605
639.191650	-58.303181	987.258545	2122.708496
639.609863	-80.664864	955.476624	2168.469727
640.027893	-117.953644	957.921875	1973.212402
640.445984	-53.335133	1001.922302	2084.154053
640.863953	-26.018044	852.698486	2185.322998
641.281921	-38.433235	935.911377	2600.824951
641.699829	-3.677091	1006.809692	2739.701904
642.117676	-26.018044	918.787354	2504.925537
642.535461	-58.303181	948.140198	2103.433350
642.953247	-18.570162	899.211914	1903.195923
643.370972	-18.570162	872.286926	2079.333496
643.788635	-50.851192	779.192566	1895.949585
644.206177	8.730772	992.146912	1593.443481
644.623718	1.286340	906.553467	1593.443481
645.041260	-13.605341	953.031250	1658.880737
645.458618	-28.500927	938.357300	1903.195923
645.876099	-18.570162	889.422302	2231.051514
646.293396	-63.271660	877.183228	2211.800293
646.710693	-40.916641	825.755554	2137.162109
647.127991	36.019108	950.585754	1939.418701
647.545166	-16.087700	776.741272	1712.160522
647.962341	40.979210	850.249512	1683.103271
648.379333	-8.641074	852.698486	1508.536865
648.796448	18.655268	857.596191	1394.373779
649.213379	-63.271660	943.249084	1221.590332
649.630310	-100.549232	850.249512	1185.035767
650.047180	-70.725372	730.145081	1209.407593
650.463989	21.136166	820.855652	1194.785645
650.880859	-68.240692	779.192566	1175.284912
651.297546	-70.725372	710.516113	1258.126953
651.714233	-65.756126	747.315735	1023.979065
652.130859	-16.087700	771.837830	1072.821777
652.547485	-35.950069	737.504517	1304.380981
652.963928	6.249354	722.785034	1423.537842
653.380432	-65.756126	762.029968	1442.974365
653.796814	-68.240692	815.955322	1355.471069
654.213196	-48.367363	1121.565186	1404.096313
654.629578	-70.725372	1917.621094	1323.848022
655.045837	-60.787434	2435.269531	1396.804688
655.462036	-1.195390	2495.264160	1270.301758
655.878174	-70.725372	1949.009521	1299.513672
656.294312	-120.440453	1680.615356	1104.552002
656.710327	-95.577576	1416.181519	967.768677
657.126404	-28.500927	1335.945923	1055.730591
657.542358	-13.605341	1184.969360	1119.191895
657.958252	40.979210	1111.805908	1387.080933
658.374084	-58.303181	970.146912	1685.525146
658.789917	-8.641074	957.921875	2045.582153
659.205688	-50.851192	857.596191	2538.501709
659.621338	-73.210014	860.044922	2348.872314
660.037048	13.693295	793.900024	2216.613525
660.452637	-30.983778	649.139099	2055.226563
660.868164	-68.240692	703.153992	1927.346313
661.283691	-98.063286	739.957581	1607.989746
661.699158	-60.787434	717.877747	1481.833008
662.114502	3.767967	622.115479	1177.722778
662.529846	43.459179	695.790710	940.869873
662.945129	-93.091835	693.336182	931.086060
663.360413	-6.159030	737.504517	811.121704
663.775635	-6.159030	744.863037	774.356445
664.190674	-11.123223	678.607056	791.515991
664.605835	-11.123223	622.115479	767.000854
665.020813	-6.159030	690.881714	742.477295
665.435791	1.286340	644.226379	887.041321
665.850769	8.730772	663.874634	1019.092896
666.265625	-26.018044	685.972107	1109.432373
666.680420	-11.123223	580.329834	1211.844360
667.095215	-45.883778	690.881714	1141.146484
667.509949	-108.007599	663.874634	1063.056030
667.924622	-26.018044	685.972107	1070.380493
668.339233	-26.018044	693.336182	1014.206665
668.753784	-23.535265	627.029541	967.768677
669.168335	-73.210014	644.226379	879.697998
669.582825	13.693295	784.095520	916.407349
669.997192	-53.335133	1525.459473	879.697998
670.411560	-80.664864	3433.402100	1277.605957
670.825867	-16.087700	4804.839355	1496.399902
671.240173	-26.018044	4588.811523	1702.475708
671.654358	-103.035301	3050.174561	1651.612671
672.068481	-38.433235	2480.869385	1571.619141
672.482605	36.019108	2199.700439	1493.972290
672.896667	11.212086	1953.837646	1384.650146
673.310669	-3.677091	1595.802124	1561.917480
673.724609	-40.916641	1333.513184	1421.107910
674.138489	-11.123223	960.367188	1481.833008
674.552307	-38.433235	784.095520	1275.171265
674.966064	-103.035301	703.153992	1258.126953
675.379822	-80.664864	656.507385	1146.024536
675.793579	-80.664864	735.051453	1265.432251
676.207153	-28.500927	639.313660	1136.268188
676.620789	-60.787434	698.245239	987.325134
677.034241	-11.123223	629.486511	923.747070
677.447754	-6.159030	597.538818	921.300598
677.861206	-38.433235	597.538818	1028.864868
678.274597	-13.605341	595.080627	1019.092896
678.687866	16.174267	563.116394	965.323975
679.101135	-26.018044	511.448914	923.747070
679.514404	-8.641074	513.910217	759.644836
679.927551	45.939041	523.754272	933.531921
680.340698	28.578102	528.675903	882.145935
680.753723	-30.983778	486.831146	896.831543
681.166748	-35.950069	427.709869	840.519775
681.579712	-95.577576	422.780579	960.433777
681.992615	8.730772	553.278198	1058.172485
682.405457	-48.367363	469.593048	994.657532
682.818298	-53.335133	403.060150	1250.821289
683.231018	3.767967	442.495209	1328.713989
683.643738	-38.433235	501.602966	1406.526733
684.056335	-13.605341	570.494263	1292.211792
684.468994	-78.179901	705.608215	1185.035767
684.881531	-11.123223	886.974609	970.213562
685.293945	-65.756126	830.654907	931.086060
685.706482	-28.500927	604.912842	818.472229
686.118774	-98.063286	501.602966	845.418335
686.531128	-40.916641	472.055939	506.593323
686.943481	-60.787434	560.656860	604.979797
687.355713	-3.677091	506.526245	654.118286
687.767883	-45.883778	462.203766	663.941589
688.179932	-48.367363	407.990692	654.118286
688.592041	-38.433235	366.067474	764.549133
689.004089	1.286340	346.329224	663.941589
689.416016	-38.433235	388.265442	617.267761
689.827881	-68.240692	531.136597	590.231262
690.239868	-13.605341	563.116394	560.724182
690.651611	-70.725372	457.277130	673.763672
691.063354	-85.635391	432.638794	813.572083
691.475098	-33.466869	338.925690	774.356445
691.886719	-63.271660	417.851166	776.808105
692.298340	-58.303181	407.990692	678.674194
692.709900	-21.052593	363.600494	663.941589
693.121460	-48.367363	292.017212	634.467224
693.532837	-80.664864	319.179199	585.314209
693.944214	-80.664864	250.016571	597.605835
694.355652	-88.120804	254.959381	656.574341
694.766846	-13.605341	222.824509	747.382813
695.178101	-23.535265	282.137360	649.205994
695.589294	-98.063286	274.726227	666.397278
696.000366	-50.851192	289.547455	575.479370
696.411438	-33.466869	301.895599	742.477295
696.822510	-88.120804	217.879288	659.030212
697.233459	-13.605341	324.116272	486.898254
697.644409	-13.605341	269.785156	558.264648
698.055298	-78.179901	316.710388	452.417511
698.466064	-1.195390	299.426117	654.118286
698.876831	58.336536	324.116272	730.212158
699.287537	-90.606194	203.041061	916.407349
699.698181	-55.819035	289.547455	860.111572
700.108826	-43.400158	284.607391	842.969116
700.519348	-58.303181	217.879288	690.948608
700.929810	-85.635391	225.297058	818.472229
701.340271	63.294918	227.769485	806.220764
701.750732	-110.493988	178.302673	730.212158
702.161011	-33.466869	222.824509	710.583252
702.571350	-43.400158	304.365021	600.063904
702.981567	28.578102	245.073502	634.467224
703.391724	-18.570162	309.303375	541.045349
703.801880	-45.883778	279.667084	462.270905
704.211914	-88.120804	296.956665	469.660156
704.621948	-33.466869	262.372711	408.058136
705.031921	-8.641074	282.137360	395.730408
705.441895	-45.883778	262.372711	373.535034
705.851746	11.212086	272.255798	395.730408
706.261536	-90.606194	232.713928	442.562622
706.671265	-43.400158	294.487000	521.360657
707.081055	-40.916641	331.521545	398.196167
707.490662	-80.664864	230.241821	457.344513
707.900330	-13.605341	240.129913	491.822632
708.309814	38.499279	292.017212	484.435883
708.719299	-21.052593	235.186081	543.505554
709.128784	-21.052593	168.404495	462.270905
709.538147	-78.179901	262.372711	462.270905
709.947510	-3.677091	193.146866	378.467865
710.356750	-35.950069	185.725220	390.798920
710.766052	-55.819035	220.352005	390.798920
711.175171	-13.605341	343.861450	343.928711
711.584290	1.286340	262.372711	326.652039
711.993347	-18.570162	257.430481	319.246490
712.402405	8.730772	259.901642	388.332916
712.811401	21.136166	198.094101	348.864105
713.220276	-65.756126	148.603302	324.183807
713.629150	-26.018044	235.186081	376.001648
714.037964	-50.851192	289.547455	469.660156
714.446777	-35.950069	193.146866	368.601593
714.855408	-152.778229	277.196716	430.241516
715.264099	-65.756126	148.603302	489.360474
715.672668	-50.851192	175.828247	388.332916
716.081177	-16.087700	245.073502	427.777008
716.489746	-40.916641	175.828247	474.585876
716.898132	-8.641074	175.828247	624.639648
717.306519	65.773827	237.658112	688.493896
717.714844	-83.150078	257.430481	600.063904
718.123108	-3.677091	198.094101	526.282471
718.531372	-63.271660	269.785156	526.282471
718.939514	-40.916641	259.901642	479.510925
719.347595	-50.851192	225.297058	440.098572
719.755676	-11.123223	198.094101	393.264587
720.163696	-18.570162	257.430481	432.705902
720.571716	-68.240692	222.824509	371.068359
720.979614	-26.018044	185.725220	449.953827
721.387451	-127.901390	198.094101	464.734100
721.795227	-35.950069	235.186081	536.124695
722.202942	8.730772	200.567627	580.396851
722.610718	-78.179901	282.137360	536.124695
723.018311	-16.087700	170.879211	432.705902
723.425903	-98.063286	217.879288	385.866791
723.833374	1.286340	222.824509	405.592773
724.240906	-40.916641	108.981689	297.023956
724.648376	-33.466869	232.713928	326.652039
725.055725	-50.851192	104.027084	304.432434
725.463013	-90.606194	170.879211	341.461121
725.870300	31.058451	262.372711	329.120483
726.277466	1.286340	108.981689	284.674835
726.684631	-55.819035	183.251083	274.793579
727.091797	23.616825	165.929657	180.844421
727.498779	-8.641074	222.824509	259.968994
727.905823	6.249354	151.078842	264.910980
728.312805	-48.367363	259.901642	225.364426
728.719666	-58.303181	163.454727	235.253571
729.126526	55.857323	165.929657	309.370636
729.533264	-1.195390	156.029465	153.621719
729.940063	-48.367363	262.372711	297.023956
730.346680	-85.635391	227.769485	203.108582
730.753357	-35.950069	138.700302	205.581909
731.159851	3.767967	207.987473	222.892151
731.566406	-63.271660	245.073502	138.767899
731.972900	-26.018044	66.855148	205.581909
732.379272	-38.433235	210.460617	230.309189
732.785645	-65.756126	254.959381	247.612518
733.191895	-90.606194	133.748260	252.555496
733.598206	-50.851192	180.776855	190.740448
734.004333	-8.641074	168.404495	190.740448
734.410522	-55.819035	151.078842	161.047272
734.816528	-16.087700	158.504700	242.669113
735.222656	-90.606194	165.929657	247.612518
735.628662	-28.500927	237.658112	272.323273
736.034546	-53.335133	205.514374	213.001022
736.440430	-80.664864	284.607391	306.901733
736.846252	-68.240692	151.078842	151.146423
737.252014	-80.664864	173.353714	106.572075
737.657715	6.249354	178.302673	173.421265
738.063354	-70.725372	175.828247	292.084503
738.468933	-21.052593	207.987473	331.588806
738.874512	11.212086	175.828247	363.667725
739.280029	-68.240692	101.549759	472.123077
739.685486	-85.635391	126.319366	390.798920
740.090881	16.174267	153.554276	329.120483
740.496216	-48.367363	173.353714	334.057037
740.901550	-45.883778	183.251083	284.674835
741.306702	-18.570162	106.504440	289.614899
741.711914	-63.271660	128.795807	208.054871
742.117004	-40.916641	185.725220	269.852600
742.522095	3.767967	210.460617	316.777679
742.927124	-115.466934	250.016571	306.901733
743.332031	73.210320	287.077484	361.200653
743.737000	13.693295	210.460617	321.715179
744.141785	-43.400158	183.251083	227.836853
744.546631	-83.150078	66.855148	282.204651
744.951355	-18.570162	133.748260	311.839752
745.356079	16.174267	148.603302	376.001648
745.760620	-23.535265	185.725220	277.264038
746.165283	-1.195390	247.545151	203.108582
746.569824	-8.641074	143.652069	180.844421
746.974243	-85.635391	143.652069	205.581909
747.378723	-21.052593	170.879211	131.339630
747.783020	-95.577576	118.889565	232.781433
748.187378	-30.983778	146.127808	215.473969
748.591614	-93.091835	200.567627	225.364426
748.995850	-108.007599	123.842819	227.836853
749.399963	21.136166	146.127808	190.740448
749.804077	-21.052593	160.979828	235.253571
750.208130	-108.007599	220.352005	138.767899
750.612122	3.767967	126.319366	220.419525
751.016052	-73.210014	193.146866	205.581909
751.419922	-35.950069	165.929657	242.669113
751.823792	-1.195390	163.454727	217.946793
752.227478	-103.035301	84.204964	213.001022
752.631226	-85.635391	146.127808	240.197556
753.034851	-33.466869	195.620590	277.264038
753.438477	-58.303181	156.029465	299.493561
753.842102	-50.851192	116.412712	277.264038
754.245544	-43.400158	203.041061	232.781433
754.648987	21.136166	84.204964	203.108582
755.052368	-33.466869	180.776855	170.946655
755.455750	1.286340	138.700302	245.140869
755.859009	-75.694908	136.224396	213.001022
756.262268	-105.521469	99.072197	217.946793
756.665405	-95.577576	210.460617	208.054871
757.068542	-70.725372	165.929657	321.715179
757.471680	-35.950069	151.078842	363.667725
757.874634	-21.052593	153.554276	363.667725
758.277588	-35.950069	178.302673	334.057037
758.680420	-53.335133	76.769966	301.963043
759.083374	3.767967	170.879211	425.312683
759.486084	-50.851192	123.842819	309.370636
759.888916	-98.063286	99.072197	242.669113
760.291504	26.097515	101.549759	262.440033
760.694214	-48.367363	66.855148	245.140869
761.096802	-26.018044	99.072197	257.497833
761.499268	8.730772	151.078842	148.670898
761.901733	-100.549232	151.078842	188.266800
762.304199	-58.303181	200.567627	141.243835
762.706543	21.136166	158.504700	180.844421
763.108826	36.019108	96.594536	193.214279
763.511108	-75.694908	106.504440	106.572075
763.913208	-70.725372	158.504700	230.309189
764.315369	-68.240692	27.179428	185.792770
764.717529	8.730772	56.938694	237.725601
765.119568	-35.950069	37.100838	353.799133
765.521545	1.286340	94.116913	294.554291
765.923462	-112.980476	314.241486	400.661804
766.325317	-78.179901	528.675903	459.807922
766.727112	-60.787434	513.910217	744.930115
767.128845	-93.091835	459.740509	607.437622
767.530518	-103.035301	358.666260	767.000854
767.932251	-120.440453	299.426117	509.054840
768.333862	-21.052593	188.199249	427.777008
768.735413	-6.159030	292.017212	388.332916
769.136841	-11.123223	279.667084	420.383209
769.538269	11.212086	496.679321	489.360474
769.939636	6.249354	511.448914	548.425476
770.341003	-26.018044	390.731476	484.435883
770.742249	-63.271660	287.077484	550.885376
771.143433	-28.500927	235.186081	491.822632
771.544617	-16.087700	200.567627	437.634430
771.945740	-50.851192	198.094101	403.127319
772.346802	-26.018044	215.406448	319.246490
772.747803	-23.535265	183.251083	262.440033
773.148682	-21.052593	86.683006	240.197556
773.549622	-98.063286	136.224396	277.264038
773.950439	31.058451	76.769966	257.497833
774.351196	-88.120804	131.272018	274.793579
774.751892	-11.123223	178.302673	232.781433
775.152588	-26.018044	61.897060	321.715179
775.553162	-26.018044	108.981689	222.892151
775.953735	-35.950069	146.127808	175.895798
776.354309	-88.120804	64.376160	180.844421
776.754639	-30.983778	106.504440	213.001022
777.155090	-6.159030	89.161072	200.635162
777.555420	-35.950069	136.224396	146.195267
777.955750	16.174267	133.748260	146.195267
778.355896	-3.677091	108.981689	252.555496
778.756104	-6.159030	32.140408	252.555496
779.156189	13.693295	118.889565	257.497833
779.556274	-21.052593	74.291382	183.318649
779.956299	-100.549232	32.140408	200.635162
780.356201	-13.605341	148.603302	292.084503
780.756165	-58.303181	136.224396	237.725601
781.156006	-98.063286	81.726685	250.084045
781.555786	-65.756126	59.417999	237.725601
781.955505	-33.466869	54.459293	284.674835
782.355225	-26.018044	128.795807	306.901733
782.754761	-18.570162	81.726685	264.910980
783.154358	-28.500927	29.659971	193.214279
783.553894	-93.091835	96.594536	131.339630
783.953369	-26.018044	12.294271	188.266800
784.352783	43.459179	44.540775	262.440033
784.752075	-28.500927	89.161072	267.381866
785.151367	-60.787434	136.224396	242.669113
785.550598	40.979210	165.929657	272.323273
785.949768	58.336536	69.334038	334.057037
786.348877	-23.535265	101.549759	299.493561
786.747986	36.019108	195.620590	188.266800
787.147034	-13.605341	113.935760	269.852600
787.545959	-43.400158	71.812691	165.997223
787.944885	-58.303181	116.412712	183.318649
788.343750	-38.433235	158.504700	151.146423
788.742493	-13.605341	123.842819	136.291855
789.141235	-100.549232	170.879211	163.522308
789.539917	-18.570162	165.929657	71.880371
789.938538	-83.150078	141.176239	146.195267
790.337158	-40.916641	175.828247	143.719528
790.735718	-58.303181	17.256495	71.880371
791.134094	-28.500927	64.376160	131.339630
791.532532	-33.466869	39.580967	200.635162
791.930847	-70.725372	131.272018	158.572281
792.329224	26.097515	69.334038	57.006393
792.727417	-35.950069	108.981689	153.621719
793.125610	-48.367363	17.256495	19.805056
793.523682	36.019108	84.204964	29.727695
793.921753	-45.883778	12.294271	148.670898
794.319824	-105.521469	47.020592	81.794350
794.717773	-45.883778	47.020592	96.662186
795.115723	-112.980476	89.161072	151.146423
795.513550	-78.179901	47.020592	170.946655
795.911377	-35.950069	24.698919	106.572075
796.309082	-16.087700	79.248306	52.047485
796.706787	-21.052593	138.700302	66.922699
797.104370	-80.664864	56.938694	66.922699
797.501953	-103.035301	44.540775	227.836853
797.899536	-11.123223	42.060989	188.266800
798.296936	-6.159030	61.897060	151.146423
798.694397	6.249354	116.412712	131.339630
799.091736	-85.635391	81.726685	131.339630
799.489014	-50.851192	131.272018	138.767899
799.886230	-65.756126	113.935760	128.863281
800.283447	-11.123223	81.726685	109.049194
800.680542	-33.466869	54.459293	138.767899
801.077637	-83.150078	32.140408	185.792770
801.474670	-33.466869	106.504440	81.794350
801.871643	-73.210014	27.179428	193.214279
802.268555	-70.725372	66.855148	118.957054
802.665405	-85.635391	27.179428	64.443848
803.062256	-45.883778	163.454727	91.706558
803.458923	6.249354	81.726685	99.139839
803.855652	-23.535265	121.366173	126.386848
804.252258	-48.367363	138.700302	104.094719
804.648804	-3.677091	86.683006	61.964752
805.045410	-85.635391	29.659971	170.946655
805.441833	-63.271660	39.580967	89.228729
805.838257	6.249354	69.334038	126.386848
806.234619	-21.052593	148.603302	136.291855
806.630859	-100.549232	101.549759	64.443848
807.027100	21.136166	34.620743	114.003395
807.423279	-21.052593	-2.594633	116.480347
807.819458	-60.787434	118.889565	101.617271
808.215515	6.249354	12.294271	114.003395
808.611572	-8.641074	44.540775	158.572281
809.007507	1.286340	12.294271	170.946655
809.403381	-63.271660	66.855148	151.146423
809.799194	-1.195390	106.504440	118.957054
810.195068	-1.195390	64.376160	94.184425
810.590759	-35.950069	81.726685	69.401588
810.986450	-115.466934	81.726685	104.094719
811.382080	-43.400158	66.855148	128.863281
811.777649	-18.570162	37.100838	96.662186
812.173157	-28.500927	61.897060	74.359055
812.568665	-70.725372	101.549759	84.272491
812.964050	-73.210014	71.812691	91.706558
813.359375	-1.195390	89.161072	133.815857
813.754639	-95.577576	113.935760	69.401588
814.149841	-1.195390	74.291382	158.572281
814.545105	-75.694908	51.979916	104.094719
814.940186	-70.725372	108.981689	101.617271
815.335266	-65.756126	146.127808	138.767899
815.730347	21.136166	156.029465	215.473969
816.125244	-55.819035	108.981689	208.054871
816.520203	-26.018044	138.700302	205.581909
816.914978	-38.433235	257.430481	203.108582
817.309753	-30.983778	762.029968	329.120483
817.704468	-1.195390	2031.047241	865.008789
818.099182	-50.851192	3193.165039	1600.717163
818.493774	33.538830	4183.815918	2363.288330
818.888367	-35.950069	5130.460938	3395.448242
819.282898	-70.725372	5581.086914	4209.825195
819.677307	-53.335133	5469.174316	4713.376465
820.071716	-95.577576	4720.355957	4767.362793
820.466003	36.019108	3673.073975	4443.058594
820.860291	-68.240692	2768.344238	4039.889160
821.254517	-3.677091	2204.514404	3245.608154
821.648743	1.286340	1712.094482	2608.013184
822.042786	-23.535265	1301.880981	1804.106445
822.436890	11.212086	962.812012	1277.605957
822.830872	-13.605341	708.062317	793.967041
823.224792	-8.641074	528.675903	518.899658
823.618774	-58.303181	252.488022	319.246490
824.012512	-11.123223	225.297058	405.592773
824.406311	43.459179	240.129913	242.669113
824.799988	-40.916641	148.603302	156.097061
825.193665	-53.335133	183.251083	195.688004
825.587280	-43.400158	163.454727	190.740448
825.980835	-21.052593	168.404495	123.910446
826.374329	-60.787434	2.368707	126.386848
826.767761	18.655268	86.683006	148.670898
827.161194	-80.664864	12.294271	146.195267
827.554443	-108.007599	47.020592	121.433792
827.947754	-26.018044	113.935760	116.480347
828.340942	-40.916641	64.376160	153.621719
828.734131	-58.303181	89.161072	101.617271
829.127136	-98.063286	96.594536	86.750664
829.520264	-18.570162	84.204964	32.207996
829.913208	-45.883778	74.291382	94.184425
830.306152	-43.400158	37.100838	163.522308
830.699097	-11.123223	101.549759	106.572075
831.091797	-45.883778	56.938694	106.572075
831.484619	1.286340	74.291382	96.662186
831.877319	-33.466869	89.161072	114.003395
832.270020	-33.466869	64.376160	153.621719
832.662537	-30.983778	24.698919	146.195267
833.055054	-115.466934	84.204964	156.097061
833.447510	-26.018044	81.726685	195.688004
833.839966	-73.210014	22.218170	114.003395
834.232361	-23.535265	34.620743	71.880371
834.624634	-98.063286	113.935760	168.471924
835.016907	-40.916641	9.813137	64.443848
835.409058	-35.950069	42.060989	96.662186
835.801208	-88.120804	71.812691	114.003395
836.193298	-26.018044	74.291382	49.567875
836.585327	-30.983778	39.580967	54.526989
836.977295	-6.159030	14.775435	54.526989
837.369202	-21.052593	101.549759	57.006393
837.761047	-43.400158	89.161072	32.207996
838.152832	-40.916641	34.620743	86.750664
838.544617	-28.500927	69.334038	52.047485
838.936218	63.294918	81.726685	12.362017
839.327942	-145.314056	74.291382	2.436464
839.719421	-33.466869	47.020592	-19.902033
840.111023	31.058451	74.291382	79.315979
840.502380	-53.335133	4.850288	29.727695
840.893860	-6.159030	34.620743	121.433792
841.285217	-90.606194	19.737318	69.401588
841.676453	-33.466869	22.218170	52.047485
842.067749	-85.635391	-12.522700	205.581909
842.458862	-93.091835	-52.251621	163.522308
842.849976	50.898319	-17.487295	106.572075
843.241028	3.767967	12.294271	64.443848
843.632019	-73.210014	44.540775	47.088299
844.022949	-35.950069	44.540775	148.670898
844.413879	-60.787434	94.116913	198.161636
844.804749	-38.433235	99.072197	89.228729
845.195496	-70.725372	37.100838	126.386848
845.586182	-6.159030	7.331765	44.608482
845.976807	-83.150078	37.100838	109.049194
846.367432	-73.210014	59.417999	123.910446
846.757996	-68.240692	-0.112843	84.272491
847.148499	38.499279	-2.594633	114.003395
847.538879	36.019108	-32.383865	136.291855
847.929260	-30.983778	79.248306	183.318649
848.319641	-1.195390	-24.935040	158.572281
848.709839	-98.063286	-34.866882	121.433792
849.100098	6.249354	76.769966	118.957054
849.490234	-23.535265	-0.112843	27.247158
849.880310	1.286340	-10.040493	24.766516
850.270325	-70.725372	-5.076527	52.047485
850.660339	-38.433235	2.368707	61.964752
851.050171	-35.950069	54.459293	27.247158
851.440125	-26.018044	-62.188099	27.247158
851.829895	-70.725372	56.938694	42.128567
852.219604	-16.087700	24.698919	86.750664
852.609314	-6.159030	-12.522700	109.049194
852.998901	-8.641074	-47.284084	44.608482
853.388550	-6.159030	-15.005013	84.272491
853.778015	-85.635391	69.334038	37.168556
854.167480	8.730772	-34.866882	74.359055
854.556885	-26.018044	-79.580978	39.648678
854.946228	-75.694908	32.140408	81.794350
855.335571	-73.210014	69.334038	94.184425
855.724731	-35.950069	51.979916	-22.384657
856.113953	-53.335133	12.294271	101.617271
856.503052	60.815777	34.620743	49.567875
856.892151	-73.210014	71.812691	109.049194
857.281067	-73.210014	-5.076527	66.922699
857.670105	-50.851192	29.659971	86.750664
858.058960	-70.725372	14.775435	27.247158
858.447754	3.767967	34.620743	106.572075
858.836609	-40.916641	-10.040493	-44.732727
859.225281	-55.819035	49.500305	81.794350
859.613892	-8.641074	7.331765	109.049194
860.002502	-45.883778	32.140408	89.228729
860.391052	-6.159030	69.334038	101.617271
860.779541	-45.883778	27.179428	39.648678
861.167969	-150.290024	76.769966	61.964752
861.556335	-103.035301	74.291382	61.964752
861.944702	43.459179	61.897060	19.805056
862.332947	3.767967	54.459293	52.047485
862.721069	-13.605341	61.897060	109.049194
863.109253	-63.271660	-54.735619	61.964752
863.497314	-21.052593	-72.126274	17.324100
863.885376	-85.635391	7.331765	106.572075
864.273315	-18.570162	-37.350140	37.168556
864.661255	-33.466869	-22.452444	111.526344
865.049072	-50.851192	-2.594633	111.526344
865.436890	-18.570162	2.368707	-24.867386
865.824707	-80.664864	54.459293	76.837502
866.212280	3.767967	-54.735619	57.006393
866.599915	-63.271660	-19.969816	153.621719
866.987488	33.538830	4.850288	17.324100
867.375061	-18.570162	9.813137	-5.008761
867.762451	-1.195390	113.935760	71.880371
868.149841	-21.052593	19.737318	131.339630
868.537170	3.767967	56.938694	-5.008761
868.924438	-6.159030	-19.969816	101.617271
869.311707	11.212086	-24.935040	81.794350
869.698853	-95.577576	54.459293	81.794350
870.085938	-103.035301	51.979916	101.617271
870.472961	-50.851192	-0.112843	-29.833023
870.859985	-13.605341	111.458847	111.526344
871.246887	8.730772	-34.866882	128.863281
871.633789	28.578102	47.020592	96.662186
872.020569	-43.400158	9.813137	4.918042
872.407349	-28.500927	-27.417875	99.139839
872.794067	-3.677091	-12.522700	86.750664
873.180725	-90.606194	39.580967	47.088299
873.567322	-68.240692	-2.594633	-5.008761
873.953796	-58.303181	-12.522700	54.526989
874.340332	-55.819035	-10.040493	61.964752
874.726624	-3.677091	89.161072	27.247158
875.113037	-33.466869	37.100838	104.094719
875.499329	-35.950069	49.500305	114.003395
875.885559	-93.091835	4.850288	74.359055
876.271729	-35.950069	86.683006	81.794350
876.657898	-11.123223	7.331765	146.195267
877.044006	18.655268	61.897060	133.815857
877.429932	-80.664864	9.813137	141.243835
877.815918	-26.018044	-2.594633	37.168556
878.201782	-40.916641	14.775435	74.359055
878.587585	-45.883778	56.938694	66.922699
878.973389	-78.179901	9.813137	94.184425
879.359070	-40.916641	22.218170	54.526989
879.744751	-80.664864	-39.833500	89.228729
880.130310	-16.087700	-49.767868	104.094719
880.515930	-1.195390	9.813137	81.794350
880.901367	13.693295	22.218170	116.480347
881.286804	13.693295	49.500305	-17.419649
881.672180	13.693295	-54.735619	121.433792
882.057434	-18.570162	-2.594633	104.094719
882.442749	-80.664864	37.100838	52.047485
882.827942	11.212086	44.540775	54.526989
883.213013	-83.150078	-15.005013	128.863281
883.598145	-48.367363	-10.040493	81.794350
883.983154	-30.983778	-64.672516	104.094719
884.368042	-33.466869	76.769966	44.608482
884.753052	-16.087700	-104.436981	66.922699
885.137817	-28.500927	7.331765	99.139839
885.522644	33.538830	-7.558390	66.922699
885.907349	26.097515	2.368707	22.285906
886.292053	-16.087700	-49.767868	17.324100
886.676636	-125.414253	-12.522700	47.088299
887.061157	-85.635391	42.060989	42.128567
887.445740	-3.677091	-59.703789	146.195267
887.830078	-16.087700	4.850288	52.047485
888.214539	-6.159030	27.179428	131.339630
888.598816	-35.950069	-47.284084	32.207996
888.983093	-55.819035	64.376160	32.207996
889.367249	-28.500927	34.620743	27.247158
889.751465	-68.240692	71.812691	54.526989
890.135498	-43.400158	74.291382	34.688328
890.519531	-11.123223	24.698919	81.794350
890.903503	-40.916641	71.812691	96.662186
891.287415	-120.440453	-2.594633	116.480347
891.671326	-98.063286	-15.005013	24.766516
892.055054	-21.052593	51.979916	126.386848
892.438843	-48.367363	42.060989	76.837502
892.822510	-85.635391	-22.452444	4.918042
893.206116	-16.087700	49.500305	81.794350
893.589661	-16.087700	-17.487295	116.480347
893.973206	-103.035301	-7.558390	131.339630
894.356628	-45.883778	-27.417875	66.922699
894.739990	1.286340	4.850288	66.922699
895.123352	-40.916641	-116.869057	106.572075
895.506592	-3.677091	29.659971	71.880371
895.889832	26.097515	42.060989	126.386848
896.272949	-26.018044	42.060989	39.648678
896.656067	23.616825	17.256495	74.359055
897.039063	-11.123223	-47.284084	114.003395
897.422058	-26.018044	-2.594633	94.184425
897.804993	-11.123223	-0.112843	146.195267
898.187866	-11.123223	-24.935040	96.662186
898.570618	43.459179	42.060989	111.526344
898.953369	1.286340	-54.735619	34.688328
899.336121	-103.035301	-22.452444	118.957054
899.718689	-105.521469	-29.900818	165.997223
900.101257	-70.725372	-12.522700	84.272491
900.483704	-18.570162	9.813137	121.433792
900.866211	-16.087700	-62.188099	12.362017
901.248596	-6.159030	-44.800404	101.617271
901.630920	-33.466869	-44.800404	123.910446
902.013184	-3.677091	-101.950867	91.706558
902.395386	-18.570162	12.294271	29.727695
902.777588	-13.605341	-84.551277	61.964752
903.159668	-40.916641	34.620743	29.727695
903.541687	-21.052593	39.580967	49.567875
903.923645	-33.466869	-0.112843	118.957054
904.305603	-18.570162	32.140408	52.047485
904.687500	-43.400158	32.140408	175.895798
905.069275	13.693295	-44.800404	89.228729
905.451050	-30.983778	-2.594633	114.003395
905.832642	-100.549232	-39.833500	163.522308
906.214294	33.538830	-37.350140	106.572075
906.595825	-26.018044	61.897060	99.139839
906.977417	-90.606194	-19.969816	138.767899
907.358826	6.249354	24.698919	99.139839
907.740234	-13.605341	-19.969816	148.670898
908.121582	16.174267	17.256495	32.207996
908.502869	-11.123223	-27.417875	79.315979
908.884033	1.286340	-54.735619	69.401588
909.265198	-13.605341	4.850288	84.272491
909.646301	-16.087700	22.218170	74.359055
910.027344	18.655268	-49.767868	81.794350
910.408325	-40.916641	22.218170	39.648678
910.789246	-63.271660	-49.767868	61.964752
911.170105	-98.063286	24.698919	173.421265
911.550903	-58.303181	39.580967	94.184425
911.931641	-11.123223	17.256495	121.433792
912.312317	-33.466869	-32.383865	183.318649
912.692932	-26.018044	-29.900818	74.359055
913.073547	-35.950069	14.775435	153.621719
913.453979	31.058451	-24.935040	71.880371
913.834473	-80.664864	-42.316833	118.957054
914.214783	-75.694908	19.737318	133.815857
914.595154	-26.018044	19.737318	118.957054
914.975464	-117.953644	44.540775	163.522308
915.355652	-137.850861	-12.522700	168.471924
915.735840	-60.787434	-37.350140	161.047272
916.115845	-55.819035	-17.487295	106.572075
916.495972	-50.851192	2.368707	220.419525
916.875854	-78.179901	-0.112843	165.997223
917.255859	-28.500927	-7.558390	203.108582
917.635620	-40.916641	-129.303680	180.844421
918.015503	3.767967	-24.935040	210.528000
918.395203	-55.819035	-22.452444	168.471924
918.774902	-50.851192	22.218170	86.750664
919.154480	-30.983778	2.368707	133.815857
919.534058	-63.271660	32.140408	136.291855
919.913574	-16.087700	81.726685	109.049194
920.292969	-18.570162	29.659971	200.635162
920.672363	-16.087700	7.331765	185.792770
921.051636	-68.240692	39.580967	165.997223
921.430969	-50.851192	-27.417875	163.522308
921.810181	-45.883778	-49.767868	143.719528
922.189331	-58.303181	-24.935040	165.997223
922.568420	18.655268	-5.076527	111.526344
922.947388	-85.635391	24.698919	148.670898
923.326416	-30.983778	42.060989	106.572075
923.705261	16.174267	7.331765	44.608482
924.084106	-13.605341	-10.040493	94.184425
924.462891	-58.303181	44.540775	47.088299
924.841675	-40.916641	-27.417875	66.922699
925.220337	3.767967	49.500305	27.247158
925.598938	-60.787434	-19.969816	-5.008761
925.977478	-83.150078	49.500305	-5.008761
926.355957	-33.466869	47.020592	12.362017
926.734436	-55.819035	-17.487295	74.359055
927.112732	-8.641074	-52.251621	49.567875
927.491089	-68.240692	-15.005013	-2.526870
927.869324	-21.052593	-17.487295	101.617271
928.247559	-21.052593	22.218170	19.805056
928.625671	23.616825	81.726685	-37.282333
929.003723	3.767967	-52.251621	-49.700047
929.381775	1.286340	-39.833500	24.766516
929.759705	-63.271660	-19.969816	44.608482
930.137634	-38.433235	-54.735619	27.247158
930.515381	-70.725372	-37.350140	-5.008761
930.893250	-55.819035	-67.156906	143.719528
931.270935	-48.367363	-27.417875	7.399381
931.648560	-3.677091	-2.594633	17.324100
932.026123	-35.950069	-19.969816	86.750664
932.403687	11.212086	-22.452444	39.648678
932.781250	3.767967	-52.251621	-67.089203
933.158630	-26.018044	-39.833500	81.794350
933.536011	-60.787434	14.775435	57.006393
933.913208	-50.851192	2.368707	-59.636093
934.290527	-73.210014	76.769966	69.401588
934.667664	8.730772	29.659971	-59.636093
935.044800	50.898319	86.683006	32.207996
935.421814	40.979210	42.060989	14.843178
935.798889	-68.240692	32.140408	27.247158
936.175842	6.249354	54.459293	19.805056
936.552673	-30.983778	-94.493279	86.750664
936.929504	-30.983778	-64.672516	19.805056
937.306274	-137.850861	-89.522133	66.922699
937.683044	28.578102	-39.833500	27.247158
938.059570	-85.635391	-24.935040	22.285906
938.436218	6.249354	-27.417875	74.359055
938.812744	-43.400158	27.179428	17.324100
939.189148	-70.725372	-22.452444	14.843178
939.565613	-13.605341	14.775435	74.359055
939.941956	-8.641074	-47.284084	-5.008761
940.318237	-63.271660	12.294271	-9.972857
940.694458	-3.677091	-7.558390	52.047485
941.070557	11.212086	-37.350140	2.436464
941.446655	-30.983778	22.218170	39.648678
941.822693	-23.535265	-32.383865	42.128567
942.198669	-3.677091	19.737318	34.688328
942.574646	-1.195390	-74.611115	-27.350220
942.950562	-33.466869	-22.452444	-7.490757
943.326294	-30.983778	-89.522133	-12.454926
943.702026	28.578102	-64.672516	-9.972857
944.077698	-33.466869	-129.303680	-49.700047
944.453369	-53.335133	14.775435	-14.937236
944.828918	-45.883778	-39.833500	9.880751
945.204468	-33.466869	-79.580978	27.247158
945.579834	-68.240692	-2.594633	-47.216267
945.955261	-33.466869	-2.594633	-54.667793
946.330627	-78.179901	24.698919	-42.249157
946.705811	16.174267	-37.350140	-9.972857
947.081055	21.136166	-72.126274	19.805056
947.456177	-38.433235	-2.594633	-0.045218
947.831238	-55.819035	-44.800404	-37.282333
948.206238	-53.335133	-89.522133	32.207996
948.581238	-45.883778	-57.219715	9.880751
948.956116	3.767967	14.775435	-14.937236
949.330933	-78.179901	-37.350140	-39.765694
949.705811	-30.983778	17.256495	-47.216267
950.080505	-73.210014	47.020592	49.567875
950.455139	-55.819035	-69.641533	-39.765694
950.829773	-85.635391	7.331765	-62.120270
951.204346	-16.087700	89.161072	-74.543274
951.578735	-73.210014	-0.112843	57.006393
951.953186	-83.150078	-59.703789	9.880751
952.327515	3.767967	-44.800404	-19.902033
952.701843	-48.367363	2.368707	-0.045218
953.076172	-33.466869	-22.452444	2.436464
953.450195	90.558159	37.100838	-49.700047
953.824341	-38.433235	-0.112843	-7.490757
954.198486	-50.851192	-37.350140	-19.902033
954.572449	-35.950069	4.850288	7.399381
954.946350	21.136166	-96.979080	-89.454269
955.320251	-11.123223	12.294271	-86.968925
955.694092	-50.851192	-129.303680	-0.045218
956.067871	-11.123223	-79.580978	-7.490757
956.441589	-11.123223	-69.641533	-29.833023
956.815125	11.212086	-62.188099	-72.058434
957.188721	-80.664864	-12.522700	-77.028214
957.562256	1.286340	-52.251621	-131.723068
957.935730	-8.641074	-32.383865	-2.526870
958.309021	3.767967	-52.251621	-62.120270
958.682373	-35.950069	-82.066147	-2.526870
959.055664	-23.535265	-69.641533	2.436464
959.428955	-65.756126	-77.095932	4.918042
959.802063	-65.756126	-22.452444	-91.939850
960.175110	8.730772	-79.580978	14.843178
960.548157	-55.819035	-34.866882	-22.384657
960.921143	-105.521469	-10.040493	34.688328
961.294128	26.097515	-12.522700	9.880751
961.666809	-145.314056	-34.866882	9.880751
962.039612	-11.123223	-7.558390	7.399381
962.412415	-105.521469	-82.066147	-54.667793
962.785095	-63.271660	-64.672516	2.436464
963.157715	-105.521469	66.855148	-32.316067
963.530151	-73.210014	-15.005013	39.648678
963.902649	-95.577576	12.294271	7.399381
964.275146	-50.851192	-24.935040	-49.700047
964.647522	-63.271660	-72.126274	19.805056
965.019714	-40.916641	-44.800404	-39.765694
965.392029	-55.819035	-39.833500	-9.972857
965.764160	-60.787434	-104.436981	94.184425
966.136292	-53.335133	-77.095932	-34.799213
966.508423	-100.549232	-89.522133	24.766516
966.880371	-53.335133	-59.703789	9.880751
967.252319	-21.052593	-29.900818	-17.419649
967.624207	-33.466869	-7.558390	4.918042
967.996094	-3.677091	-77.095932	-64.604683
968.367737	-48.367363	-29.900818	14.843178
968.739441	1.286340	-44.800404	-7.490757
969.111084	33.538830	-15.005013	9.880751
969.482666	8.730772	12.294271	22.285906
969.854248	-70.725372	-0.112843	-39.765694
970.225586	-80.664864	-15.005013	2.436464
970.596985	53.377872	-72.126274	-12.454926
970.968323	-30.983778	-49.767868	27.247158
971.339661	-23.535265	-64.672516	-19.902033
971.710754	-83.150078	-82.066147	-69.573830
972.081909	-88.120804	-39.833500	-49.700047
972.453064	-18.570162	-15.005013	-7.490757
972.824097	-28.500927	37.100838	32.207996
973.194946	-103.035301	-59.703789	-34.799213
973.565918	-23.535265	56.938694	-0.045218
973.936768	55.857323	-7.558390	-37.282333
974.307556	-23.535265	24.698919	-49.700047
974.678284	-105.521469	19.737318	-72.058434
975.048828	-75.694908	-67.156906	-5.008761
975.419495	-28.500927	-59.703789	-109.341660
975.790039	16.174267	-47.284084	-79.513130
976.160522	-55.819035	-104.436981	-22.384657
976.530884	-38.433235	29.659971	24.766516
976.901245	-98.063286	-12.522700	-9.972857
977.271606	-127.901390	-15.005013	-37.282333
977.641846	-60.787434	24.698919	2.436464
978.012024	-30.983778	-24.935040	-32.316067
978.382019	-16.087700	-42.316833	34.688328
978.752136	-55.819035	-12.522700	-74.543274
979.122131	-40.916641	-44.800404	-5.008761
979.492065	11.212086	-24.935040	34.688328
979.861877	-26.018044	-22.452444	-94.425545
980.231689	-38.433235	-37.350140	-0.045218
980.601440	-100.549232	9.813137	-99.397110
980.971191	-38.433235	2.368707	-89.454269
981.340820	3.767967	-64.672516	-5.008761
981.710266	-38.433235	32.140408	7.399381
982.079773	-50.851192	-94.493279	-22.384657
982.449280	28.578102	-54.735619	14.843178
982.818604	-55.819035	-39.833500	27.247158
983.187866	-13.605341	9.813137	9.880751
983.557129	-40.916641	-34.866882	-32.316067
983.926331	-21.052593	-62.188099	-19.902033
984.295471	-35.950069	-39.833500	-62.120270
984.664612	-16.087700	-67.156906	-99.397110
985.033569	-80.664864	-10.040493	-74.543274
985.402527	6.249354	-84.551277	-37.282333
985.771362	-18.570162	-19.969816	-121.774651
986.140259	-18.570162	-10.040493	4.918042
986.508911	-38.433235	-22.452444	-37.282333
986.877625	-16.087700	12.294271	-79.513130
987.246277	1.286340	-49.767868	27.247158
987.614929	-53.335133	-15.005013	-12.454926
987.983459	-53.335133	-54.735619	-0.045218
988.351807	28.578102	-10.040493	-19.902033
988.720215	-63.271660	-37.350140	-17.419649
989.088623	1.286340	-131.790985	-49.700047
989.456909	6.249354	-74.611115	-54.667793
989.825012	-26.018044	-59.703789	-34.799213
990.193115	-43.400158	-34.866882	47.088299
990.561279	-60.787434	-17.487295	-7.490757
990.929321	-16.087700	-37.350140	-17.419649
991.297302	-95.577576	-49.767868	-22.384657
991.665100	8.730772	-79.580978	-37.282333
992.033020	16.174267	17.256495	-59.636093
992.400818	-53.335133	42.060989	-64.604683
992.768494	26.097515	-17.487295	-72.058434
993.136047	8.730772	-57.219715	-24.867386
993.503723	-13.605341	-10.040493	-59.636093
993.871277	-70.725372	-54.735619	34.688328
994.238770	-103.035301	-69.641533	-47.216267
994.606140	-70.725372	-64.672516	17.324100
994.973450	-30.983778	-57.219715	-27.350220
995.340759	-50.851192	-47.284084	-54.667793
995.708008	-45.883778	-106.923210	39.648678
996.075195	3.767967	-52.251621	-52.183937
996.442200	-55.819035	7.331765	-57.151890
996.809265	-38.433235	-10.040493	-89.454269
997.176270	26.097515	34.620743	-72.058434
997.543152	-30.983778	14.775435	-42.249157
997.910095	-43.400158	-24.935040	29.727695
998.276733	-83.150078	29.659971	-52.183937
998.643494	8.730772	-19.969816	-141.673187
999.010193	-26.018044	-69.641533	-17.419649
999.376831	-80.664864	-111.895851	-17.419649
999.743286	-40.916641	4.850288	-72.058434
1000.109802	-60.787434	-5.076527	49.567875
1000.476257	8.730772	-124.329529	-64.604683
1000.842651	-28.500927	9.813137	57.006393
1001.208923	65.773827	-17.487295	-32.316067
1001.575134	-30.983778	-52.251621	-39.765694
1001.941284	-105.521469	-52.251621	-22.384657
1002.307434	-93.091835	-74.611115	-49.700047
1002.673523	78.167336	-96.979080	64.443848
1003.039429	-26.018044	-84.551277	-106.855324
1003.405334	-40.916641	-104.436981	-72.058434
1003.771179	-70.725372	-24.935040	-0.045218
1004.137024	-115.466934	-32.383865	-52.183937
1004.502808	-45.883778	17.256495	-99.397110
1004.868408	-93.091835	-27.417875	-42.249157
1005.234009	-73.210014	-44.800404	2.436464
1005.599609	-115.466934	-34.866882	-99.397110
1005.965149	-55.819035	-10.040493	-37.282333
1006.330444	-70.725372	-54.735619	-52.183937
1006.695862	-3.677091	-47.284084	-42.249157
1007.061218	-28.500927	2.368707	-44.732727
1007.426453	-3.677091	-47.284084	-32.316067
1007.791626	43.459179	-7.558390	2.436464
1008.156677	-43.400158	-32.383865	-32.316067
1008.521729	-78.179901	-49.767868	2.436464
1008.886780	-40.916641	-29.900818	-17.419649
1009.251709	-58.303181	4.850288	-101.883118
1009.616577	-105.521469	-27.417875	29.727695
1009.981384	-127.901390	-79.580978	-5.008761
1010.346130	-35.950069	-104.436981	-17.419649
1010.710754	-40.916641	-29.900818	-77.028214
1011.075439	21.136166	-37.350140	-39.765694
1011.439941	-65.756126	-47.284084	-32.316067
1011.804443	-50.851192	-7.558390	-7.490757
1012.168884	11.212086	-47.284084	2.436464
1012.533325	45.939041	-42.316833	-42.249157
1012.897522	-18.570162	-82.066147	-62.120270
1013.261780	-13.605341	-17.487295	-79.513130
1013.626038	-43.400158	-10.040493	-29.833023
1013.990112	28.578102	-22.452444	-24.867386
1014.354187	16.174267	-19.969816	-81.998291
1014.718140	-63.271660	-0.112843	-72.058434
1015.082153	-11.123223	17.256495	-39.765694
1015.446045	-11.123223	-39.833500	-9.972857
1015.809937	-13.605341	-5.076527	2.436464
1016.173523	-63.271660	-24.935040	-32.316067
1016.537170	-33.466869	-39.833500	-67.089203
1016.900879	3.767967	-72.126274	-81.998291
1017.264404	-3.677091	-39.833500	-49.700047
1017.627991	-75.694908	-104.436981	-129.235901
1017.991333	-78.179901	-57.219715	-86.968925
1018.354675	-88.120804	-69.641533	-77.028214
1018.718018	-58.303181	-19.969816	-9.972857
1019.081299	-53.335133	-49.767868	-5.008761
1019.444397	-88.120804	-52.251621	-57.151890
1019.807495	-73.210014	-79.580978	-19.902033
1020.170593	-3.677091	2.368707	-72.058434
1020.533691	-53.335133	-0.112843	-34.799213
1020.896606	-38.433235	-12.522700	22.285906
1021.259460	-95.577576	-17.487295	-42.249157
1021.622253	-43.400158	-54.735619	-74.543274
1021.985046	-83.150078	-94.493279	-69.573830
1022.347778	-75.694908	-32.383865	-64.604683
1022.710327	53.377872	-52.251621	-69.573830
1023.072876	26.097515	-79.580978	-69.573830
1023.435364	-33.466869	-62.188099	-64.604683
1023.797852	-53.335133	-57.219715	-49.700047
1024.160278	-80.664864	-47.284084	-54.667793
1024.522461	-85.635391	-74.611115	14.843178
1024.884766	-63.271660	-141.741119	-42.249157
1025.246948	-26.018044	-37.350140	-84.483559
1025.609131	-80.664864	-69.641533	-64.604683
1025.971069	-33.466869	-99.464981	-22.384657
1026.333130	-18.570162	-54.735619	-52.183937
1026.694946	-1.195390	-64.672516	-116.801163
1027.056885	-50.851192	-34.866882	-27.350220
1027.418823	-11.123223	74.291382	-5.008761
1027.780396	8.730772	-69.641533	-91.939850
1028.142090	-3.677091	-12.522700	-0.045218
1028.503784	-135.363297	-44.800404	7.399381
1028.865479	-110.493988	-74.611115	-67.089203
1029.226807	-8.641074	-42.316833	-47.216267
1029.588135	-48.367363	-34.866882	-67.089203
1029.949707	-40.916641	-17.487295	-52.183937
1030.310913	-8.641074	-17.487295	-12.454926
1030.672241	-21.052593	-15.005013	-69.573830
1031.033325	-90.606194	-0.112843	12.362017
1031.394531	-68.240692	-39.833500	9.880751
1031.755493	-58.303181	-37.350140	-24.867386
1032.116577	-45.883778	56.938694	-9.972857
1032.477417	-135.363297	-89.522133	-5.008761
1032.838257	1.286340	-32.383865	-17.419649
1033.199097	11.212086	-0.112843	-49.700047
1033.559937	53.377872	-52.251621	-52.183937
1033.920654	-28.500927	-74.611115	-44.732727
1034.281128	-63.271660	-19.969816	34.688328
1034.641724	-11.123223	-17.487295	-39.765694
1035.002197	-30.983778	-99.464981	-29.833023
1035.362671	43.459179	-52.251621	-49.700047
1035.722900	3.767967	91.639038	-37.282333
1036.083252	-33.466869	69.334038	-7.490757
1036.443481	-95.577576	-59.703789	-27.350220
1036.803711	-65.756126	-77.095932	-17.419649
1037.163940	90.558159	-39.833500	-9.972857
1037.523804	11.212086	-5.076527	-14.937236
1037.883789	-93.091835	-27.417875	-44.732727
1038.243774	-26.018044	17.256495	-27.350220
1038.603638	-68.240692	-57.219715	7.399381
1038.963257	-35.950069	-10.040493	-67.089203
1039.323120	-13.605341	-22.452444	22.285906
1039.682861	36.019108	2.368707	-34.799213
>>>>>End Processed Spectral Data<<<<<
