Jaz Data File
++++++++++++++++++++++++++++++++++++
Date: Thu Dec 04 18:22:13 2014
User: jaz
Dark Spectrum Present: Yes
Reference Spectrum Present: Yes
Processed Spectrum Present: No
Spectrometers: JAZA2310
Integration Time (usec): 504000 (JAZA2310)
Spectra Averaged: 1 (JAZA2310)
Boxcar Smoothing: 0 (JAZA2310)
Correct for Electrical Dark: Yes (JAZA2310)
Strobe/Lamp Enabled: No (JAZA2310)
Correct for Detector Non-linearity: Yes (JAZA2310)
Correct for Stray Light: No (JAZA2310)
Number of Pixels in Processed Spectrum: 2048
>>>>>Begin Processed Spectral Data<<<<<
W	D	R	S
188.301102	0.000000	0.000000	0.000000
188.764923	0.000000	0.000000	0.000000
189.228699	-49.654930	-216.309174	-139.728302
189.692459	-91.894699	-183.935379	-92.482109
190.156158	-94.380249	-221.291351	-37.824219
190.619812	-54.622669	-216.309174	-42.790951
191.083435	62.009785	200.679962	-3.068433
191.547043	9.925827	-59.590965	-12.996447
192.010590	9.925827	-14.892141	-65.146690
192.474091	-29.787918	94.229431	-15.478778
192.937561	37.213612	-52.138813	-25.409019
193.401001	81.839378	143.764511	66.381905
193.864410	2.481545	131.384476	24.225336
194.327759	74.404083	158.617111	118.416733
194.791077	-34.753971	9.925827	130.799408
195.254349	-14.892141	2.481545	-17.961216
195.717575	49.613056	101.662277	-37.824219
196.180786	14.888249	-64.559685	4.376547
196.643951	52.092663	116.525200	-25.409019
197.107071	24.811714	-7.445668	-50.241913
197.570145	32.253189	94.229431	71.339622
198.033203	-4.963674	4.962986	-3.068433
198.496216	-9.927631	42.173615	31.666885
198.959167	-67.043938	-67.044075	-42.790951
199.422089	-72.013290	44.653534	-12.996447
199.884979	37.213612	34.733383	-30.374702
200.347855	42.173752	44.653534	71.339622
200.810654	42.173752	74.403946	68.860817
201.273422	29.772757	17.369171	-15.478778
201.736160	66.967865	395.775208	71.339622
202.198853	64.488876	146.240250	-80.055405
202.661514	79.361000	106.616943	-20.443758
203.124130	-29.787918	-72.013428	-22.926270
203.586700	86.795677	247.657410	-32.857769
204.049240	126.431976	86.795677	49.026920
204.511734	-64.559555	79.361000	-22.926270
204.974197	7.444594	76.882530	73.818192
205.436615	-47.171146	-47.171284	-27.891876
205.899002	-24.822149	121.478790	-3.068433
206.361343	-17.374418	-12.409968	-20.443758
206.823654	-59.590828	-14.892141	19.263830
207.285919	-7.445533	101.662277	73.818192
207.748123	-49.654930	44.653534	-52.725822
208.210327	64.488876	22.330835	14.301774
208.672485	59.530727	27.292219	-30.374702
209.134583	64.488876	151.191269	-17.961216
209.596649	-99.351952	14.888115	-40.307465
210.058670	12.407091	-2.481920	-42.790951
210.520676	-101.837822	-121.729614	-94.967819
210.982635	17.369307	-4.963809	-82.540459
211.444534	7.444594	27.292219	-99.939438
211.906403	17.369307	208.099792	-25.409019
212.368240	2.481545	166.042053	-12.996447
212.830048	-119.242615	-7.445668	-67.631233
213.291779	7.444594	185.837585	-57.693825
213.753494	-64.559555	-86.923775	-117.343651
214.215179	-54.622669	-22.339691	4.376547
214.676819	-64.559555	-89.409248	-55.209839
215.138412	-86.923637	-9.927766	-67.631233
215.599960	0.000000	74.403946	46.547321
216.061493	57.051430	-34.754105	-8.032230
216.522949	29.772757	49.612923	-12.996447
216.984406	42.173752	17.369171	6.858044
217.445801	-19.856936	-7.445668	29.186562
217.907166	32.253189	52.092525	11.820724
218.368484	-2.481785	126.431839	-94.967819
218.829773	-9.927631	74.403946	-40.307465
219.291031	0.000000	42.173615	-47.758110
219.752228	57.051430	69.446617	-0.586624
220.213379	106.617081	101.662277	24.225336
220.674500	-12.409834	-129.190720	-102.425476
221.135574	9.925827	27.292219	-77.570335
221.596634	44.653534	111.571342	19.263830
222.057648	-49.654930	42.173615	-3.068433
222.518600	-74.498131	-69.528694	-45.274544
222.979553	-79.467987	-136.652802	-65.146690
223.440430	7.444594	123.955292	-0.586624
223.901276	12.407091	76.882530	21.744568
224.362076	7.444594	-86.923775	-60.178051
224.822845	-91.894699	-79.468124	-99.939438
225.283569	2.481545	27.292219	-0.586624
225.744278	-96.866043	-72.013428	-65.146690
226.204910	7.444594	153.666687	49.026920
226.665512	-44.687473	-106.810295	-20.443758
227.126114	-29.787918	-7.445668	-22.926270
227.586639	54.572029	114.048256	14.301774
228.047119	0.000000	7.444459	-32.857769
228.507568	-74.498131	138.812881	14.301774
228.967972	-17.374418	-14.892141	6.858044
229.428345	-111.782791	-49.654930	-32.857769
229.888687	0.000000	71.925262	-12.996447
230.348984	-4.963674	27.292219	-10.514354
230.809219	-59.590828	27.292219	-92.482109
231.269440	-34.753971	-24.822283	-52.725822
231.729614	-81.953140	-79.468124	-37.824219
232.189758	-94.380249	7.444459	36.627491
232.649841	-14.892141	69.446617	19.263830
233.109894	-12.409834	62.009785	-0.586624
233.569901	62.009785	210.572937	-35.340942
234.029892	47.133343	158.617111	6.858044
234.489822	9.925827	180.889374	4.376547
234.949707	-39.720581	-44.687611	-32.857769
235.409561	-2.481785	185.837585	71.339622
235.869385	17.369307	111.571342	1.895081
236.329163	-14.892141	22.330835	-55.209839
236.788895	-57.106766	-47.171284	-65.146690
237.248581	57.051430	44.653534	-27.891876
237.708237	39.693733	22.330835	76.296791
238.167847	-4.963674	-2.481920	-62.662384
238.627441	29.772757	44.653534	-57.693825
239.086960	-29.787918	49.612923	-45.274544
239.546463	86.795677	81.839241	-55.209839
240.005920	62.009785	71.925262	58.944691
240.465332	-89.409119	-116.755981	-62.662384
240.924698	-32.270958	89.273613	-75.085365
241.384033	39.693733	-86.923775	-57.693825
241.843338	59.530727	-22.339691	-52.725822
242.302597	-32.270958	27.292219	-77.570335
242.761810	71.925400	215.518890	24.225336
243.220993	39.693733	27.292219	1.895081
243.680115	-47.171146	205.626709	-8.032230
244.139221	2.481545	-19.857071	-22.926270
244.598282	-17.374418	22.330835	6.858044
245.057297	-67.043938	-57.106766	-57.693825
245.516266	-81.953140	-37.237358	26.706001
245.975189	-84.438271	-27.305115	9.339437
246.434082	-89.409119	-67.044075	-37.824219
246.892944	-119.242615	-32.270958	-22.926270
247.351761	-136.652664	-22.339691	-62.662384
247.810516	86.795677	299.538422	1.895081
248.269272	9.925827	54.571896	-42.790951
248.727951	34.733521	284.719574	71.339622
249.186600	-14.892141	-34.754105	-112.370544
249.645218	-39.720581	-81.953278	-62.662384
250.103790	-12.409834	111.571342	-5.550212
250.562317	-44.687473	-81.953278	-12.996447
251.020813	-96.866043	-94.380386	-132.265839
251.479279	-7.445533	-64.559685	-17.961216
251.937668	-49.654930	22.330835	-67.631233
252.396057	96.707191	158.617111	29.186562
252.854385	9.925827	-47.171284	-89.996498
253.312683	17.369307	66.967735	14.301774
253.770920	-79.467987	14.888115	-47.758110
254.229126	-34.753971	-29.788054	-50.241913
254.687302	-54.622669	-24.822283	-62.662384
255.145432	14.888249	-27.305115	-65.146690
255.603500	-76.982933	-37.237358	-25.409019
256.061584	27.292219	-4.963809	-27.891876
256.519592	-72.013290	76.882530	-30.374702
256.977570	-37.237225	-84.438408	-37.824219
257.435455	-64.559555	-67.044075	-27.891876
257.893372	-44.687473	-32.270958	-50.241913
258.351196	44.653534	9.925827	14.301774
258.808990	22.330971	47.133209	-12.996447
259.266754	-42.203907	-57.106766	4.376547
259.724487	81.839378	314.353607	98.599205
260.182190	9.925827	34.733383	-8.032230
260.639832	-17.374418	-44.687611	-12.996447
261.097443	-111.782791	-64.559685	-55.209839
261.554993	49.613056	101.662277	16.782854
262.012512	19.850122	91.751572	46.547321
262.469971	69.446754	84.317505	-22.926270
262.927429	14.888249	27.292219	53.986080
263.384827	27.292219	44.653534	-10.514354
263.842194	22.330971	-0.000135	-97.453644
264.299530	-2.481785	-67.044075	-47.758110
264.756805	-79.467987	-39.720581	-70.115883
265.214050	4.963121	62.009785	-72.600502
265.671234	32.253189	264.955872	125.846588
266.128387	-2.481785	-4.963809	-3.068433
266.585510	-24.822149	-59.590965	-70.115883
267.042572	-9.927631	24.811581	9.339437
267.499573	-12.409834	42.173615	11.820724
267.956604	62.009785	158.617111	11.820724
268.413574	119.002182	309.415527	29.186562
268.870483	24.811714	99.184723	-40.307465
269.327362	-39.720581	-14.892141	4.376547
269.784180	143.764648	180.889374	113.463020
270.240936	163.567261	161.092239	73.818192
270.697693	-86.923637	-9.927766	61.423912
271.154419	-14.892141	-19.857071	-40.307465
271.611053	-121.729477	-94.380386	-40.307465
272.067688	64.488876	193.259216	81.253555
272.524292	-12.409834	44.653534	-37.824219
272.980835	47.133343	9.925827	-60.178051
273.437347	27.292219	76.882530	29.186562
273.893799	-17.374418	-32.270958	-22.926270
274.350250	-37.237225	-37.237358	-80.055405
274.806610	-44.687473	-24.822283	-55.209839
275.262939	94.229568	198.206573	-50.241913
275.719238	0.000000	94.229431	-10.514354
276.175507	-59.590828	14.888115	41.587543
276.631714	-2.481785	126.431839	-40.307465
277.087891	-4.963674	37.213474	-42.790951
277.544067	-57.106766	-27.305115	-17.961216
278.000122	-62.075138	-27.305115	-35.340942
278.456177	94.229568	104.139732	-47.758110
278.912201	44.653534	116.525200	-57.693825
279.368164	-67.043938	-57.106766	-3.068433
279.824097	-67.043938	-139.140411	-15.478778
280.279968	-22.339558	12.406956	-20.443758
280.735840	-94.380249	-22.339691	-75.085365
281.191620	-17.374418	9.925827	-55.209839
281.647400	14.888249	-72.013428	-70.115883
282.103149	2.481545	74.403946	21.744568
282.558838	17.369307	54.571896	-82.540459
283.014465	9.925827	79.361000	-30.374702
283.470062	-34.753971	22.330835	-27.891876
283.925629	-2.481785	44.653534	-0.586624
284.381134	-52.138680	-17.374554	-27.891876
284.836639	-79.467987	-9.927766	6.858044
285.292053	-57.106766	86.795677	14.301774
285.747467	-76.982933	-52.138813	-55.209839
286.202820	-52.138680	-24.822283	-47.758110
286.658142	74.404083	71.925262	4.376547
287.113434	-12.409834	-9.927766	-55.209839
287.568634	37.213612	19.850122	16.782854
288.023804	62.009785	282.249542	-15.478778
288.478973	-79.467987	-54.622803	-3.068433
288.934113	-37.237225	-19.857071	-32.857769
289.389130	-81.953140	-2.481920	11.820724
289.844208	42.173752	-24.822283	-50.241913
290.299164	19.850122	12.406956	-124.804184
290.754089	4.963121	-52.138813	-3.068433
291.208984	12.407091	71.925262	-35.340942
291.663879	12.407091	64.488747	9.339437
292.118683	-27.304979	-44.687611	-27.891876
292.573456	-17.374418	34.733383	-37.824219
293.028198	-39.720581	37.213474	21.744568
293.482849	-52.138680	-49.654930	-17.961216
293.937561	-44.687473	34.733383	26.706001
294.392151	156.142014	371.113037	76.296791
294.846741	57.051430	133.860718	115.939857
295.301239	32.253189	-76.983070	-32.857769
295.755737	-81.953140	-9.927766	11.820724
296.210175	-86.923637	-44.687611	-27.891876
296.664581	-17.374418	-67.044075	-32.857769
297.118958	-86.923637	-69.528694	-52.725822
297.573242	-34.753971	-139.140411	-3.068433
298.027557	14.888249	27.292219	-30.374702
298.481812	-42.203907	39.693600	46.547321
298.935974	71.925400	37.213474	-15.478778
299.390137	19.850122	104.139732	11.820724
299.844238	-91.894699	119.002045	16.782854
300.298340	-39.720581	-42.204041	-32.857769
300.752350	-4.963674	-166.510941	-15.478778
301.206360	-39.720581	24.811581	19.263830
301.660278	-42.203907	-32.270958	-55.209839
302.114197	-67.043938	-37.237358	-37.824219
302.568054	-19.856936	57.051296	-75.085365
303.021881	34.733521	2.481545	11.820724
303.475677	44.653534	57.051296	78.775299
303.929413	24.811714	-17.374554	6.858044
304.383118	101.662407	284.719574	-57.693825
304.836761	-24.822149	-17.374554	-22.926270
305.290375	126.431976	178.415039	41.587543
305.743958	-52.138680	-47.171284	-30.374702
306.197510	-2.481785	-72.013428	-45.274544
306.650970	86.795677	106.616943	36.627491
307.104431	-39.720581	-4.963809	-20.443758
307.557800	54.572029	200.679962	-50.241913
308.011169	19.850122	-14.892141	-42.790951
308.464508	-86.923637	-12.409968	68.860817
308.917755	-49.654930	-89.409248	-15.478778
309.371063	-24.822149	-37.237358	-10.514354
309.824219	-62.075138	59.530590	6.858044
310.277374	-64.559555	-52.138813	-30.374702
310.730499	-44.687473	19.850122	-32.857769
311.183563	0.000000	217.991592	49.026920
311.636597	-39.720581	4.962986	-82.540459
312.089569	-94.380249	-12.409968	-99.939438
312.542511	101.662407	526.327087	46.547321
312.995422	-4.963674	-76.983070	-52.725822
313.448273	0.000000	39.693600	-35.340942
313.901093	14.888249	84.317505	21.744568
314.353882	71.925400	190.785385	53.986080
314.806580	-14.892141	136.336853	19.263830
315.259308	-32.270958	91.751572	-107.397728
315.711975	-49.654930	24.811581	-32.857769
316.164581	2.481545	217.991592	49.026920
316.617126	-2.481785	57.051296	73.818192
317.069672	19.850122	24.811581	-42.790951
317.522156	-2.481785	195.732941	34.147240
317.974579	-17.374418	-27.305115	-55.209839
318.427002	-22.339558	66.967735	49.026920
318.879333	71.925400	203.153381	66.381905
319.331665	-12.409834	59.530590	-47.758110
319.783936	0.000000	29.772621	34.147240
320.236176	24.811714	-0.000135	4.376547
320.688354	-14.892141	69.446617	88.688141
321.140503	9.925827	12.406956	-72.600502
321.592651	47.133343	141.288681	34.147240
322.044647	14.888249	54.571896	53.986080
322.496704	-42.203907	94.229431	11.820724
322.948639	-22.339558	17.369171	-57.693825
323.400604	-4.963674	180.889374	-10.514354
323.852509	49.613056	267.426605	36.627491
324.304352	-91.894699	91.751572	1.895081
324.756165	42.173752	245.185760	-35.340942
325.207916	-49.654930	99.184723	4.376547
325.659668	-44.687473	109.094193	-10.514354
326.111328	-29.787918	195.732941	-30.374702
326.562988	-52.138680	123.955292	19.263830
327.014557	-49.654930	262.484924	-42.790951
327.466156	84.317642	417.963135	-0.586624
327.917664	-94.380249	232.826202	-30.374702
328.369110	0.000000	183.363449	19.263830
328.820557	29.772757	213.045959	11.820724
329.271942	17.369307	215.518890	9.339437
329.723297	-37.237225	264.955872	-25.409019
330.174561	-69.528564	297.068848	24.225336
330.625854	17.369307	339.037903	-32.857769
331.077026	-64.559555	326.696899	49.026920
331.528229	22.330971	442.607208	66.381905
331.979370	-4.963674	526.327087	103.554260
332.430450	29.772757	415.498138	11.820724
332.881500	-54.622669	294.599152	6.858044
333.332489	49.613056	437.679077	76.296791
333.783478	62.009785	592.734131	39.107502
334.234406	-47.171146	255.071609	4.376547
334.685303	29.772757	462.315796	19.263830
335.136078	-32.270958	274.838562	66.381905
335.586914	29.772757	462.315796	125.846588
336.037659	47.133343	646.794495	138.227753
336.488342	-9.927631	413.033081	106.031639
336.939026	-62.075138	321.759918	96.121658
337.389648	-62.075138	319.291199	68.860817
337.840240	-19.856936	339.037903	143.179428
338.290771	-2.481785	395.775208	140.703568
338.741272	76.882660	521.405273	110.985947
339.191681	54.572029	717.989319	158.032181
339.642120	62.009785	636.968445	190.200897
340.092468	84.317642	548.470276	247.073318
340.542816	-7.445533	413.033081	180.304642
340.993103	-22.339558	568.146606	274.254730
341.443329	-7.445533	528.787842	274.254730
341.893555	-96.866043	405.637451	296.485199
342.343689	-24.822149	511.560822	328.582001
342.793793	-59.590828	595.192444	306.362915
343.243866	-59.590828	533.708740	303.893616
343.693878	-44.687473	457.389160	328.582001
344.143890	-7.445533	482.018311	279.195496
344.593842	109.094330	732.709839	363.129517
345.043732	66.967865	546.010254	508.517700
345.493591	59.530727	587.817322	589.694763
345.943359	-104.323944	538.629639	567.565674
346.393158	24.811714	523.866150	535.587952
346.842896	-44.687473	600.108704	466.659851
347.292542	-19.856936	668.897278	417.380615
347.742218	-4.963674	541.089966	476.511200
348.191803	-9.927631	496.791260	449.416382
348.641357	-96.866043	587.817322	619.189209
349.090881	-37.237225	614.855103	597.069702
349.540314	-22.339558	617.312561	550.348755
349.989777	-17.374418	803.814514	633.931396
350.439148	-59.590828	575.523865	673.227844
350.888489	-54.622669	632.055176	1008.786621
351.337799	37.213612	843.013428	1718.895020
351.787048	-99.351952	720.442749	2482.810547
352.236267	-57.106766	747.427246	3226.045410
352.685425	-17.374418	720.442749	3755.548096
353.134552	-42.203907	636.968445	3314.091064
353.583649	-47.171146	852.809814	3087.871094
354.032684	-54.622669	803.814514	2353.153809
354.481659	94.229568	921.345154	1967.859131
354.930634	-27.304979	891.980896	1435.156250
355.379517	14.888249	843.013428	1240.547485
355.828430	9.925827	862.604614	1118.659790
356.277222	-27.304979	700.811218	1030.774658
356.726013	-76.982933	698.356812	989.236267
357.174774	2.481545	651.706970	1021.003174
357.623444	24.811714	762.141479	991.680115
358.072113	34.733521	602.566467	925.659668
358.520721	-74.498131	560.768738	888.955139
358.969299	-89.409119	624.684082	1042.987183
359.417786	-69.528564	757.236938	923.213257
359.866302	-9.927631	909.111450	972.125183
360.314697	-37.237225	727.803284	999.012085
360.763123	17.369307	769.497498	849.782104
361.211456	-109.296486	820.966736	847.333069
361.659760	54.572029	722.896301	876.715759
362.108032	-39.720581	884.638123	700.231201
362.556244	-19.856936	840.564148	744.394897
363.004456	-52.138680	840.564148	871.819702
363.452576	-22.339558	1031.351929	1033.217407
363.900696	-29.787918	833.215942	1208.875854
364.348663	-4.963674	965.368225	1798.742188
364.796722	-14.892141	958.032837	2533.182617
365.244690	29.772757	1033.794678	3083.102783
365.692596	-27.304979	1041.122070	3166.510986
366.140472	-29.787918	1199.704102	2858.737793
366.588287	7.444594	1224.070801	2525.988037
367.036102	-57.106766	1187.517700	2269.016113
367.483826	-74.498131	1053.333130	1905.084473
367.931549	17.369307	1141.190674	1638.968994
368.379181	-47.171146	1063.100220	1636.545654
368.826843	22.330971	1092.393921	1522.569458
369.274384	-37.237225	1031.351929	1391.412720
369.721924	-59.590828	1194.829712	1374.394653
370.169403	101.662407	1353.083252	1476.446777
370.616821	-69.528564	1245.994263	1626.851807
371.064270	12.407091	1197.266968	1500.725342
371.511566	47.133343	1177.766968	1646.238159
371.958923	42.173752	1233.815552	1721.315918
372.406158	-17.374418	1168.015259	1760.038086
372.853424	-12.409834	945.805725	1832.593262
373.300568	86.795677	999.589661	1851.930542
373.747711	4.963121	1087.512695	1895.422607
374.194794	-54.622669	1028.909180	2011.290894
374.641846	-39.720581	958.032837	2045.056030
375.088898	-86.923637	982.481018	1967.859131
375.535828	44.653534	1204.578247	2006.466553
375.982758	-54.622669	1075.307373	2249.773438
376.429596	91.751709	1202.141235	2468.413330
376.876465	32.253189	1255.736084	2947.114014
377.323242	14.888249	1214.325195	3788.699951
377.769989	-32.270958	1338.489136	4762.157715
378.216675	-47.171146	1374.968994	5405.730957
378.663330	-72.013290	1326.325073	5596.954590
379.109985	-44.687473	1345.786499	5272.626465
379.556519	22.330971	1518.289307	4881.780762
380.003052	200.680099	1811.404907	4296.537109
380.449524	-14.892141	1374.968994	3480.452881
380.895996	-9.927631	1336.056519	2966.211426
381.342377	-44.687473	1340.921509	2518.793457
381.788727	-32.270958	1233.815552	1851.930542
382.235046	-22.339558	1104.596436	1733.418579
382.681274	34.733521	1331.190918	1517.715698
383.127533	-134.165283	865.053162	1367.099854
383.573669	-27.304979	1050.891113	1359.804321
384.019836	0.000000	1067.983398	1384.119629
384.465912	-37.237225	1107.036377	1432.726807
384.911957	2.481545	1204.578247	1529.849243
385.357971	-62.075138	1163.138672	1522.569458
385.803925	-79.467987	1146.068604	1520.142578
386.249847	-19.856936	1292.255859	1464.304932
386.695679	-14.892141	1304.425293	1454.589966
387.141541	-52.138680	1124.115601	1391.412720
387.587311	49.613056	1316.592773	1486.159180
388.033051	-47.171146	1284.953369	1682.574829
388.478729	-29.787918	1258.171143	2110.136475
388.924408	-49.654930	1219.198242	2321.911865
389.369995	-22.339558	1319.026001	2254.584473
389.815552	-29.787918	1306.859131	2122.183350
390.261078	-37.237225	1566.812500	1774.554443
390.706543	17.369307	1625.000977	1544.407349
391.152008	-69.528564	1583.788574	1493.442505
391.597351	19.850122	1515.862305	1481.303223
392.042725	-7.445533	1508.580811	1551.685425
392.487976	14.888249	1304.425293	1303.850220
392.933289	-96.866043	1072.866089	1235.675781
393.378479	-27.304979	1067.983398	1252.725220
393.823639	0.000000	1182.642578	1330.616089
394.268768	-67.043938	1070.424927	1515.288696
394.713837	59.530727	1535.275757	1776.973389
395.158905	29.772757	1438.159912	1810.833496
395.603851	-19.856936	1406.571167	1796.323730
396.048798	-101.837822	1457.592651	1822.922974
396.493683	0.000000	1440.589355	1873.679565
396.938568	71.925400	1311.725952	1689.840210
397.383392	71.925400	1426.011719	1561.388184
397.828156	-96.866043	1426.011719	1503.152710
398.272888	-12.409834	1646.810669	1211.312622
398.717560	-37.237225	1852.501587	1233.239868
399.162201	-29.787918	2004.624146	1269.770752
399.606781	-89.409119	2067.324707	1459.447388
400.051361	-24.822149	2120.343262	1684.996704
400.495819	62.009785	2129.979248	1605.036743
400.940308	-104.323944	2182.959473	1449.731934
401.384705	0.000000	2435.378662	1269.770752
401.829102	76.882660	2579.299561	1286.812378
402.273438	32.253189	2399.362549	1245.418701
402.717682	2.481545	2363.332031	1303.850220
403.161926	-39.720581	2296.036133	1396.274292
403.606110	-64.559555	2406.566650	1665.619751
404.050293	24.811714	2519.359863	2401.196533
404.494385	-106.810158	2444.980225	3247.469238
404.938446	-86.923637	2336.900391	3577.768311
405.382477	-91.894699	2365.734375	3698.691406
405.826447	57.051430	2428.176270	3128.390137
406.270386	12.407091	2384.952148	2535.580566
406.714233	128.908401	2507.367432	2001.641479
407.158081	-27.304979	2305.652588	1825.340576
407.601868	-91.894699	2370.539307	1597.763672
408.045624	19.850122	2432.977783	1752.779297
408.489319	29.772757	2598.472168	1772.135254
408.933014	17.369307	2744.530273	1909.914795
409.376617	17.369307	2512.164551	2249.773438
409.820190	-12.409834	2375.343750	2727.215820
410.263702	-12.409834	2490.574951	3516.067139
410.707184	-42.203907	2528.952881	4041.736084
411.150635	-47.171146	2557.725586	3743.705566
411.594025	-22.339558	2521.758545	3123.624023
412.037384	-54.622669	2586.489258	2751.142578
412.480682	-72.013290	2742.137939	2653.004150
412.923981	-39.720581	2696.667725	2494.806396
413.367126	-49.654930	2624.827148	2739.179932
413.810333	-32.270958	2615.244629	2664.978027
414.253479	-12.409834	2751.708008	2643.424072
414.696533	-14.892141	2749.315186	2223.307617
415.139587	-37.237225	2646.385010	1958.204468
415.582581	57.051430	3040.742676	1793.905151
416.025543	2.481545	2844.963379	1929.234009
416.468414	-94.380249	2856.912598	2256.989746
416.911285	-32.270958	2797.151611	2561.953857
417.354065	64.488876	3047.898438	2506.800537
417.796875	-67.043938	2734.960205	2410.802002
418.239594	-181.445679	2773.236816	2715.250244
418.682281	59.530727	2933.352295	3114.091553
419.124908	-106.810158	2864.081543	3473.328857
419.567505	54.572029	3090.817871	3847.874756
420.010071	-69.528564	2766.060791	3843.141846
420.452545	-2.481785	2916.636230	3720.016357
420.895020	-7.445533	2775.628418	3689.212402
421.337372	39.693733	3057.437256	3992.122070
421.779785	116.525337	3309.895752	4254.111328
422.222107	52.092663	3326.544922	4055.906982
422.664368	22.330971	2945.290283	3897.555420
423.106628	-42.203907	2923.800537	3278.406006
423.548798	-67.043938	2813.888672	2681.738281
423.990967	-64.559555	2916.636230	2261.800293
424.433044	7.444594	2890.362305	2066.755127
424.875092	-54.622669	2890.362305	1958.204468
425.317078	-37.237225	2997.801270	1726.156982
425.759064	-52.138680	2883.195557	1895.422607
426.200989	-42.203907	2852.133301	1711.632202
426.642853	-22.339558	2780.411865	1680.152832
427.084686	34.733521	2909.471680	1534.702393
427.526459	24.811714	3000.187256	1333.048950
427.968201	-12.409834	3052.668213	1235.675781
428.409912	7.444594	2722.995361	1099.138916
428.851563	2.481545	2887.973633	1140.614502
429.293121	-9.927631	2878.417236	1191.816284
429.734711	-29.787918	2622.431641	1077.171631
430.176239	-7.445533	2620.035645	1069.848022
430.617706	-57.106766	2392.157471	1077.171631
431.059113	-27.304979	2447.380859	1140.614502
431.500488	-37.237225	2588.886230	1038.102661
431.941833	-9.927631	2950.065430	1069.848022
432.383087	-116.755981	3014.503174	940.336182
432.824341	24.811714	3245.651123	967.235413
433.265533	-62.075138	3086.050049	888.955139
433.706726	-47.171146	3081.282227	768.918091
434.147827	12.407091	3140.867432	959.900208
434.588867	-27.304979	3088.434082	1250.289795
435.029877	-19.856936	3264.690918	1786.649292
435.470825	-69.528564	3452.514404	2892.187012
435.911804	-17.374418	3687.402588	3992.122070
436.352661	29.772757	3765.580811	4216.385742
436.793518	-17.374418	3592.562012	3421.069580
437.234283	22.330971	3891.018066	2688.920410
437.675049	-119.242615	3578.328857	1977.512573
438.115723	-54.622669	3604.422363	1772.135254
438.556396	-106.810158	3502.383789	1410.857300
438.997040	49.613056	3592.562012	1384.119629
439.437561	123.955429	3770.317139	1461.876221
439.878113	-19.856936	3680.291992	1303.850220
440.318573	2.481545	3722.945068	1260.030762
440.759033	-24.822149	3760.844238	1328.183228
441.199341	27.292219	3886.287109	1157.685791
441.639709	-62.075138	3701.620850	1133.296997
442.079956	42.173752	3864.996338	1108.899902
442.520264	-29.787918	3841.334229	1089.376709
442.960510	49.613056	4002.132080	986.792053
443.400604	37.213612	3846.066895	1011.230103
443.840759	-39.720581	3775.052490	981.903320
444.280762	-62.075138	3725.313965	1069.848022
444.720825	-2.481785	4063.550293	1240.547485
445.160767	-17.374418	3895.748779	1099.138916
445.600739	-64.559555	3734.790039	1104.019775
446.040558	12.407091	3765.580811	1042.987183
446.480438	-69.528564	3869.727539	1025.888916
446.920258	-47.171146	4018.670898	928.106018
447.359955	-79.467987	4141.453613	903.639282
447.799713	-91.894699	4301.806641	950.118958
448.239319	-42.203907	4398.377441	915.873718
448.678955	-14.892141	4579.516602	879.163818
449.118500	-37.237225	4945.614258	989.236267
449.558014	-19.856936	4964.356934	881.611755
449.997498	-54.622669	5034.615723	886.507446
450.436951	-144.115707	5214.751953	920.766968
450.876343	-14.892141	5354.926758	881.611755
451.315674	37.213612	5345.586914	955.009949
451.754974	-62.075138	4966.699707	940.336182
452.194183	14.888249	5200.725098	1030.774658
452.633392	-91.894699	4797.908203	1057.639648
453.072510	-59.590828	4736.895020	1030.774658
453.511688	2.481545	4457.221191	1057.639648
453.950684	17.369307	4701.679688	974.569641
454.389740	84.317642	4797.908203	1108.899902
454.828735	111.571480	4929.211914	1121.099487
455.267639	9.925827	4696.983398	1006.343262
455.706543	34.733521	4711.071289	1018.560059
456.145325	2.481545	4746.283203	1086.935791
456.584137	190.785522	4800.253906	1179.628662
457.022858	-101.837822	4581.867676	1179.628662
457.461578	4.963121	4591.268555	1025.888916
457.900208	64.488876	4417.210938	1138.175415
458.338867	-32.270958	4431.333496	1238.111694
458.777405	-91.894699	4363.056641	1323.317383
459.215912	47.133343	4494.864746	1223.495361
459.654388	62.009785	4603.019531	1396.274292
460.092773	131.384613	4443.101563	1345.211670
460.531189	-34.753971	4146.172852	1337.914307
460.969513	0.000000	4436.041016	1437.585815
461.407806	-7.445533	4348.924805	1352.508423
461.846008	47.133343	4689.938965	1471.590454
462.284241	-42.203907	4558.359375	1296.548584
462.722351	-67.043938	4711.071289	1196.691040
463.160461	42.173752	4889.367676	1108.899902
463.598541	12.407091	5020.566895	1152.808716
464.036530	27.292219	5086.111328	1296.548584
464.474518	19.850122	5008.858887	1169.877197
464.912384	-44.687473	5207.739258	1116.219849
465.350281	-4.963674	5541.569336	1150.369995
465.788086	-9.927631	6236.600586	1172.315186
466.225891	-17.374418	6740.888184	1021.003174
466.663605	-99.351952	7321.329102	1157.685791
467.101318	7.444594	7901.460938	1169.877197
467.539001	-32.270958	7960.934570	1174.752930
467.976563	22.330971	8034.096191	1435.156250
468.414124	29.772757	7516.522949	1425.437500
468.851593	-74.498131	7401.739258	1495.870239
469.289063	-9.927631	7056.772461	1364.668091
469.726440	-17.374418	6690.088379	1240.547485
470.163849	89.273743	6563.000000	1272.205566
470.601135	-37.237225	6324.650879	1240.547485
471.038422	-57.106766	6262.095215	1189.379150
471.475677	34.733521	6368.652344	1291.680664
471.912811	-154.067993	6213.418945	1201.565308
472.350006	-27.304979	6465.864258	1386.550781
472.787048	-4.963674	6180.957520	1512.861694
473.224121	76.882660	6234.282715	1609.885010
473.661072	-32.270958	6278.316406	1585.640381
474.098053	52.092663	6301.485352	1561.388184
474.534943	-4.963674	6606.917969	1408.427124
474.971802	-24.822149	7047.560547	1376.825806
475.408630	22.330971	7296.047363	1374.394653
475.845367	4.963121	7194.869629	1413.287476
476.282104	54.572029	7072.891113	1374.394653
476.718750	-29.787918	6685.469238	1235.675781
477.155426	32.253189	7121.236816	1337.914307
477.591949	17.369307	6759.354980	1396.274292
478.028503	34.733521	6703.944824	1444.873657
478.464966	-27.304979	6782.435547	1568.664795
478.901428	19.850122	6655.440430	1403.566284
479.337860	-62.075138	6671.610840	1556.537109
479.774170	14.888249	6890.857910	1369.531494
480.210510	-39.720581	6823.970215	1354.940552
480.646698	14.888249	6932.356934	1393.843384
481.082947	-69.528564	7137.347168	1337.914307
481.519073	-29.787918	7364.986328	1316.017700
481.955200	-34.753971	7420.110352	1384.119629
482.391266	9.925827	7539.467773	1478.875000
482.827301	-44.687473	7605.985352	1561.388184
483.263306	19.850122	7940.350586	1622.004761
483.699188	14.888249	7926.626465	1503.152710
484.135101	81.839378	8011.236816	1452.161011
484.570923	-29.787918	7803.042480	1444.873657
485.006744	-57.106766	7919.763672	1398.704956
485.442413	12.407091	7548.644531	1388.981812
485.878174	119.002182	7603.690918	1529.849243
486.313782	37.213612	7254.666016	1354.940552
486.749390	22.330971	7289.150879	1447.302856
487.184998	-12.409834	7449.960449	1410.857300
487.620453	19.850122	7821.358887	1522.569458
488.055939	-7.445533	7860.270996	1680.152832
488.491333	-52.138680	7821.358887	1781.811401
488.926727	-52.138680	8148.329590	1871.263184
489.362030	34.733521	8269.310547	1864.013916
489.797302	-39.720581	8554.212891	1675.308960
490.232513	17.369307	8811.250977	1609.885010
490.667755	37.213612	8749.879883	1677.730835
491.102905	64.488876	9330.689453	1597.763672
491.537964	-24.822149	8963.428711	1561.388184
491.973022	44.653534	9038.319336	1706.790161
492.407990	19.850122	9085.956055	1706.790161
492.842957	24.811714	9371.438477	1883.343628
493.277832	-34.753971	9097.294922	1718.895020
493.712738	-22.339558	9289.930664	1996.816162
494.147491	-57.106766	9215.173828	2112.545898
494.582275	-74.498131	9624.717773	2131.819092
495.017029	-2.481785	9902.359375	1912.330078
495.451660	9.925827	10073.648438	1868.846802
495.886292	-44.687473	10219.986328	2037.821899
496.320831	9.925827	11289.641602	2064.344238
496.755402	14.888249	12893.645508	2042.644531
497.189850	-27.304979	15337.647461	2013.703247
497.624298	52.092663	19346.226563	2542.773926
498.058655	59.530727	23482.644531	2743.965332
498.493042	-7.445533	25974.044922	2743.965332
498.927368	24.811714	26038.333984	2600.302002
499.361572	66.967865	24243.785156	2494.806396
499.795807	49.613056	21292.919922	2295.467773
500.229919	27.292219	18159.058594	2276.230957
500.664063	54.572029	15625.009766	2020.939697
501.098083	-29.787918	13457.762695	1822.922974
501.532104	12.407091	11724.886719	1747.939331
501.966064	2.481545	10541.432617	1801.160645
502.399994	-4.963674	9875.295898	1907.499878
502.833893	9.925827	9452.898438	1895.422607
503.267700	-59.590828	9067.810547	1943.720581
503.701477	-27.304979	8833.975586	2098.088379
504.135193	-116.755981	8369.665039	2422.807373
504.568909	19.850122	8191.712402	2454.014160
505.002502	-9.927631	8365.105469	2336.332520
505.436127	-32.270958	8171.164063	2220.901367
505.869629	24.811714	8344.583984	2333.929199
506.303162	32.253189	8652.081055	2715.250244
506.736603	-84.438271	8463.110352	2636.238525
507.169983	-7.445533	8547.382813	2643.424072
507.603363	-67.043938	8326.338867	2420.406494
508.036621	-47.171146	8433.488281	2403.598145
508.469940	-29.787918	8469.944336	2242.556152
508.903107	-54.622669	8638.428711	1953.376953
509.336304	-146.603638	8718.045898	1810.833496
509.769379	-12.409834	8711.223633	1629.275391
510.202484	24.811714	8779.431641	1646.238159
510.635529	-29.787918	8656.631836	1733.418579
511.068481	-22.339558	8902.124023	1760.038086
511.501434	-19.856936	8995.205078	2061.933350
511.934265	-81.953140	8865.782227	2008.878662
512.367126	52.092663	9174.381836	2182.390625
512.799927	-76.982933	8561.043945	2220.901367
513.232605	9.925827	8636.154297	2218.494873
513.665344	79.361000	8690.753906	1975.099243
514.097961	-14.892141	9067.810547	1963.031982
514.530579	-76.982933	10141.207031	1815.669556
514.963135	-19.856936	11903.127930	1808.415527
515.395691	79.361000	13081.851563	1907.499878
515.828064	64.488876	13307.475586	1813.251465
516.260498	-74.498131	12199.057617	1801.160645
516.692871	-54.622669	10662.642578	1820.505249
517.125183	91.751709	9825.666016	1827.758057
517.557373	34.733521	9206.111328	1895.422607
517.989624	42.173752	8954.347656	2124.592041
518.421753	0.000000	8415.255859	2163.128662
518.853943	-126.703529	8143.761719	2042.644531
519.286072	2.481545	8107.216309	2151.087891
519.718018	-89.409119	8504.114258	1960.618164
520.150024	-34.753971	8326.338867	1813.251465
520.581909	-42.203907	8531.442383	1747.939331
521.013855	-2.481785	8095.793457	1849.513550
521.445679	-84.438271	8353.704102	1921.989990
521.877502	-129.190582	8381.063477	2086.038574
522.309204	19.850122	8410.697266	1835.010620
522.740906	-7.445533	8442.603516	1987.165039
523.172546	-49.654930	8267.028320	1975.099243
523.604187	-52.138680	8164.314453	1769.716064
524.035767	-9.927631	8690.753906	1769.716064
524.467224	-101.837822	8066.091309	1541.981323
524.898682	-4.963674	8212.257813	1464.304932
525.330078	54.572029	8114.069336	1483.731201
525.761475	-54.622669	7995.233887	1427.867310
526.192749	-79.467987	7679.342773	1481.303223
526.624023	-62.075138	7208.671875	1488.587158
527.055237	0.000000	7325.925781	1442.444336
527.486389	-99.351952	7164.961914	1440.015259
527.917542	-9.927631	7615.156250	1469.161987
528.348572	99.184853	7470.621582	1529.849243
528.779663	-54.622669	7523.407227	1386.550781
529.210571	-54.622669	7557.820313	1622.004761
529.641541	-12.409834	7387.957520	1859.180664
530.072388	-52.138680	7282.254395	2401.196533
530.503235	24.811714	7661.007813	2944.726318
530.934082	-89.409119	7530.291016	3135.539551
531.364746	-24.822149	7459.143555	3164.129150
531.795532	7.444594	7514.228027	2696.102051
532.226135	-2.481785	7277.657227	2660.188477
532.656738	4.963121	6987.667480	2796.586670
533.087280	14.888249	7238.569336	3102.174072
533.517822	49.613056	7148.853516	3468.579102
533.948242	34.733521	7321.329102	5291.316895
534.378662	-86.923637	7010.706543	11953.812500
534.809082	-22.339558	7348.904297	23916.572266
535.239319	57.051430	7514.228027	35976.527344
535.669617	0.000000	7775.563965	41940.125000
536.099792	-79.467987	7647.253418	39320.117188
536.529968	-74.498131	7560.114258	33835.882813
536.960083	12.407091	7296.047363	29022.000000
537.390137	71.925400	7649.546875	25592.388672
537.820190	-22.339558	7266.162598	22282.582031
538.250183	-37.237225	7259.264160	19529.437500
538.680115	-67.043938	7358.094727	16831.240234
539.109985	99.184853	7729.752930	14372.364258
539.539795	-12.409834	7171.863770	11771.166016
539.969543	12.407091	7095.914551	9953.684570
540.399292	57.051430	7093.612793	8271.052734
540.828979	32.253189	7286.852539	6825.731934
541.258606	-76.982933	6950.796387	5534.024414
541.688171	-19.856936	6858.571777	4367.210449
542.117737	-69.528564	7100.519531	3516.067139
542.547302	-74.498131	7006.099121	3013.939453
542.976685	-101.837822	6830.891113	2559.556641
543.406128	22.330971	7013.009766	2124.592041
543.835388	39.693733	6911.608887	1837.428101
544.264771	-79.467987	7031.437988	1793.905151
544.693970	12.407091	7123.538086	1905.084473
545.123230	2.481545	7128.141113	2559.556641
545.552307	-57.106766	7472.916992	5732.026367
545.981506	0.000000	7832.805176	8660.643555
546.410583	-99.351952	7775.563965	10046.083008
546.839539	-144.115707	7791.594238	8951.541016
547.268555	-52.138680	7619.742676	6370.420410
547.697449	86.795677	7803.042480	5125.335449
548.126282	-59.590828	7479.803711	4209.311035
548.555054	47.133343	7583.051270	3580.140625
548.983887	-86.923637	7809.912109	2851.568848
549.412598	59.530727	7766.403320	2225.713867
549.841309	96.707191	8155.180664	1842.262329
550.269958	-32.270958	8237.364258	1624.428345
550.698486	29.772757	8435.766602	1508.007446
551.127075	27.292219	8576.978516	1337.914307
551.555481	-116.755981	8608.845703	1104.019775
551.983948	22.330971	8540.551758	1177.190918
552.412292	-17.374418	8947.537109	1257.595825
552.840698	0.000000	8883.954102	1335.481567
553.268860	32.253189	8868.053711	1430.296997
553.697205	4.963121	9006.552734	1347.644043
554.125366	22.330971	9206.111328	1435.156250
554.553467	-94.380249	8865.782227	1500.725342
554.981628	7.444594	8922.561523	1430.296997
555.409607	-76.982933	9203.843750	1442.444336
555.837646	71.925400	9040.587891	1425.437500
556.265564	59.530727	8992.935547	1398.704956
556.693481	-67.043938	9215.173828	1483.731201
557.121338	34.733521	9172.114258	1393.843384
557.549133	-64.559555	9004.283203	1225.931396
557.976929	-114.269333	9135.843750	1284.378052
558.404602	99.184853	9654.086914	1186.941772
558.832275	-9.927631	9330.689453	1169.877197
559.259888	-27.304979	9423.487305	1047.871826
559.687439	-54.622669	9803.101563	1082.053955
560.114929	-76.982933	9818.896484	1021.003174
560.542419	-12.409834	9733.128906	1067.406494
560.969788	-29.787918	10044.363281	1067.406494
561.397156	-37.237225	10336.955078	1069.848022
561.824524	-81.953140	10042.110352	1160.124146
562.251770	-49.654930	9979.013672	1257.595825
562.679016	-59.590828	10134.451172	1629.275391
563.106140	-2.481785	10327.960938	2146.270996
563.533264	14.888249	10332.458008	2386.786377
563.960327	-42.203907	10586.335938	2540.375977
564.387329	22.330971	10705.267578	2355.556152
564.814331	-7.445533	10965.252930	2201.648193
565.241272	-57.106766	11077.185547	2081.218018
565.668213	29.772757	12303.518555	2129.410156
566.094971	54.572029	13647.685547	1888.175537
566.521790	-39.720581	15410.056641	1670.464478
566.948425	-119.242615	18548.167969	2028.175171
567.375183	17.369307	21946.949219	2676.949951
567.801819	-47.171146	29329.652344	3449.578125
568.228394	47.133343	38898.988281	4461.371094
568.654846	-57.106766	49419.261719	4844.265625
569.081421	84.317642	54474.992188	5127.674805
569.507874	62.009785	52715.976563	4642.409180
569.934265	34.733521	46077.132813	3724.754395
570.360596	-2.481785	38351.503906	2916.072021
570.786865	-81.953140	31744.052734	2506.800537
571.213074	-2.481785	26843.710938	2269.016113
571.639282	49.613056	22832.925781	1818.087402
572.065430	12.407091	19562.765625	1646.238159
572.491516	-84.438271	16637.007813	1347.644043
572.917603	-54.622669	14661.090820	1206.439209
573.343567	-29.787918	13711.694336	1157.685791
573.769531	-59.590828	12946.804688	1165.000854
574.195435	69.446754	12844.905273	1121.099487
574.621277	-79.467987	12290.186523	1147.931152
575.047119	-4.963674	12285.742188	1135.736206
575.472839	-141.628006	12176.824219	1213.749268
575.898560	37.213612	12889.215820	1752.779297
576.324158	-94.380249	12791.720703	2753.534912
576.749817	12.407091	13353.898438	3850.240723
577.175293	-42.203907	13446.714844	3992.122070
577.600830	-44.687473	13634.440430	3769.757568
578.026306	89.273743	14361.876953	3037.794434
578.451721	19.850122	14619.306641	3340.251465
578.877136	-62.075138	15155.462891	3873.900391
579.302429	-2.481785	15664.478516	3925.934326
579.727661	-49.654930	16838.320313	3677.362305
580.152832	-32.270958	17273.603516	2791.803955
580.578064	-74.498131	18340.496094	2213.681885
581.003113	-86.923637	18823.625000	1885.759766
581.428223	-42.203907	19934.712891	1747.939331
581.853271	-34.753971	21121.875000	1476.446777
582.278198	-72.013290	22414.994141	1367.099854
582.703125	-34.753971	23934.746094	1118.659790
583.127930	-57.106766	25066.039063	1135.736206
583.552795	128.908401	26783.767578	1050.313965
583.977539	-9.927631	27701.267578	1008.786621
584.402283	-49.654930	29516.609375	1116.219849
584.826965	-37.237225	31134.587891	1008.786621
585.251587	44.653534	32575.386719	1238.111694
585.676208	22.330971	33281.625000	1517.715698
586.100647	-42.203907	33916.261719	1743.099243
586.525208	69.446754	33332.683594	1880.927612
586.949524	-27.304979	30778.574219	1902.669189
587.373962	2.481545	27221.261719	2393.991699
587.798218	-104.323944	22472.162109	3866.803223
588.222534	-14.892141	18156.873047	7513.686523
588.646729	-49.654930	13991.808594	12808.926758
589.070984	-86.923637	11224.815430	18661.328125
589.495117	-37.237225	9461.947266	22825.802734
589.919128	9.925827	8125.490723	24510.541016
590.343201	12.407091	7782.434570	23786.410156
590.767151	-91.894699	8344.583984	21761.984375
591.191101	14.888249	10195.231445	18969.593750
591.614990	7.444594	12709.700195	16382.575195
592.038818	-62.075138	15964.760742	14387.771484
592.462524	-57.106766	20083.539063	12260.772461
592.886292	27.292219	23767.080078	10309.439453
593.310059	81.839378	26932.527344	8496.742188
593.733582	-14.892141	29227.271484	7334.574219
594.157227	-9.927631	31032.242188	6182.729004
594.580750	-4.963674	32179.818359	5752.971680
595.004272	-9.927631	33115.117188	5005.964355
595.427673	-17.374418	33434.781250	4642.409180
595.851074	-84.438271	33556.847656	4214.027832
596.274353	-19.856936	33208.367188	3951.940918
596.697632	-49.654930	32328.732422	4037.011719
597.120911	29.772757	31477.169922	4140.895996
597.544067	39.693733	31105.664063	4249.396484
597.967224	-29.787918	30233.316406	4386.048828
598.390320	0.000000	29354.134766	4393.112305
598.813354	39.693733	28570.828125	4287.110352
599.236328	-104.323944	27472.337891	3729.492188
599.659241	-22.339558	26834.830078	3290.302246
600.082153	-37.237225	26095.978516	2930.400391
600.505005	12.407091	24968.703125	2791.803955
600.927795	-57.106766	24318.869141	2686.526367
601.350525	-34.753971	23566.412109	2381.982422
601.773254	2.481545	22663.505859	2141.453857
602.195862	-109.296486	22061.169922	2069.165771
602.618408	-42.203907	21336.787109	1851.930542
603.040955	37.213612	21084.603516	1895.422607
603.463440	-64.559555	20258.667969	1769.716064
603.885925	-34.753971	20017.876953	1590.489990
604.308350	7.444594	19499.332031	1590.489990
604.730652	-44.687473	18766.781250	1529.849243
605.152893	7.444594	18355.798828	1337.914307
605.575195	-104.323944	17999.482422	1403.566284
605.997375	-47.171146	17271.417969	1347.644043
606.419495	-79.467987	16921.457031	1415.717651
606.841553	24.811714	16556.029297	1333.048950
607.263672	-52.138680	16078.686523	1264.901001
607.685608	7.444594	16304.269531	1423.007813
608.107605	-64.559555	15640.358398	1563.813721
608.529480	-84.438271	15475.870117	1622.004761
608.951294	9.925827	15100.569336	1743.099243
609.373108	-24.822149	14518.124023	1609.885010
609.794800	-69.528564	14377.286133	1735.838867
610.216553	-24.822149	14113.020508	1735.838867
610.638123	37.213612	14062.338867	1822.922974
611.059753	-22.339558	13535.075195	1757.618652
611.481262	-44.687473	13700.659180	1665.619751
611.902832	-54.622669	13356.108398	1457.018921
612.324219	-29.787918	13269.887695	1308.717285
612.745605	-42.203907	13258.832031	1452.161011
613.166931	-54.622669	12840.474609	1405.996704
613.588196	-72.013290	12918.011719	1415.717651
614.009460	-64.559555	12731.871094	1328.183228
614.430664	-47.171146	12625.427734	1182.066406
614.851807	42.173752	13960.946289	1186.941772
615.272827	19.850122	16113.733398	1347.644043
615.693909	9.925827	19243.439453	1491.015015
616.114929	-47.171146	20817.197266	1750.359253
616.535889	-19.856936	19801.232422	1730.998047
616.956787	-42.203907	17835.525391	1641.392212
617.377563	19.850122	16028.298828	1464.304932
617.798340	49.613056	14476.319336	1357.372681
618.219055	-19.856936	13630.025391	1189.379150
618.639832	2.481545	12736.304688	1272.205566
619.060364	19.850122	11989.954102	1130.857544
619.481018	-7.445533	11472.805664	913.426941
619.901611	-111.782791	10938.377930	866.922974
620.322083	-42.203907	10714.239258	884.059631
620.742493	-22.339558	10375.174805	925.659668
621.162842	-12.409834	9794.074219	790.981140
621.583191	-27.304979	9913.634766	815.487732
622.003418	-34.753971	9554.658203	810.586975
622.423706	2.481545	9724.097656	805.686035
622.843872	-22.339558	9398.597656	800.784912
623.264038	4.963121	9138.111328	719.863159
623.684143	-84.438271	8779.431641	714.955627
624.104126	0.000000	8995.205078	727.223450
624.524170	-14.892141	8947.537109	773.821472
624.944031	-89.409119	8808.978516	803.235657
625.364014	17.369307	8690.753906	1028.331909
625.783752	-39.720581	8410.697266	1342.779175
626.203552	-57.106766	8253.337891	1449.731934
626.623230	-67.043938	8271.591797	1262.465942
627.042969	14.888249	8280.718750	1052.756104
627.462585	24.811714	7759.532227	884.059631
627.882141	54.572029	7658.715820	898.744873
628.301697	-7.445533	7358.094727	876.715759
628.721130	64.488876	7548.644531	847.333069
629.140625	-106.810158	7095.914551	712.501770
629.559998	-62.075138	7424.704102	619.189209
629.979309	-17.374418	7183.367188	837.536133
630.398560	17.369307	6976.145996	815.487732
630.817810	-99.351952	7065.982910	786.078979
631.237000	-62.075138	6987.667480	773.821472
631.656067	-89.409119	6969.232910	673.227844
632.075195	-9.927631	6690.088379	646.213989
632.494202	-2.481785	6888.552246	673.227844
632.913208	-79.467987	6826.276855	658.494385
633.332092	49.613056	7006.099121	690.412964
633.750977	-89.409119	6805.512207	619.189209
634.169739	37.213612	6837.812012	570.024597
634.588562	-69.528564	6747.813477	565.106384
635.007263	12.407091	6943.881836	643.757568
635.425964	-9.927631	7148.853516	631.474548
635.844543	-59.590828	6978.450195	592.153137
636.263123	7.444594	6950.796387	562.646973
636.681641	-9.927631	6957.710449	641.301147
637.100037	-47.171146	7084.403320	587.236267
637.518494	24.811714	7289.150879	732.130127
637.936829	22.330971	7176.465820	771.369629
638.355164	-29.787918	7141.949707	653.582397
638.773438	-19.856936	7266.162598	601.985840
639.191650	-47.171146	7171.863770	629.017578
639.609863	-86.923637	7098.216797	574.942810
640.027893	0.000000	7098.216797	658.494385
640.445984	-47.171146	7065.982910	552.808594
640.863953	-32.270958	7003.795410	619.189209
641.281921	-86.923637	7084.403320	533.127441
641.699829	-99.351952	7019.920898	592.153137
642.117676	7.444594	7406.332031	673.227844
642.535461	-9.927631	6782.435547	705.139526
642.953247	-59.590828	7201.770508	678.138428
643.370972	64.488876	7417.814453	611.816772
643.788635	-57.106766	7148.853516	520.823792
644.206177	27.292219	7137.347168	572.483765
644.623718	-27.304979	7112.029297	555.268372
645.041260	-121.729477	6784.743652	530.666992
645.458618	-49.654930	7033.741211	656.038391
645.876099	-29.787918	6860.878418	746.847595
646.293396	7.444594	6983.059570	854.679993
646.710693	-64.559555	6874.715820	719.863159
647.127991	-52.138680	6539.878906	665.861633
647.545166	-17.374418	6747.813477	653.582397
647.962341	-47.171146	6377.913574	540.508545
648.379333	-94.380249	6477.431641	542.968750
648.796448	-39.720581	6308.435547	560.187500
649.213379	69.446754	6509.815918	560.187500
649.630310	-42.203907	6431.153809	523.284668
650.047180	-49.654930	6551.440430	409.985474
650.463989	-14.892141	6491.311523	407.520172
650.880859	44.653534	6625.404785	552.808594
651.297546	-47.171146	6502.877441	400.123901
651.714233	0.000000	6565.312012	449.416382
652.130859	7.444594	6526.004883	461.733673
652.547485	-2.481785	6424.210938	437.096893
652.963928	71.925400	6793.974121	503.594727
653.380432	-42.203907	6634.647461	545.428894
653.796814	-69.528564	6597.673340	407.520172
654.213196	4.963121	6669.300781	651.126526
654.629578	-12.409834	6761.663574	974.569641
655.045837	76.882660	6694.707031	1303.850220
655.462036	-4.963674	6458.922852	1362.236206
655.878174	7.444594	6359.390137	1201.565308
656.294312	-57.106766	6025.488281	1006.343262
656.710327	-89.409119	5981.363281	793.432251
657.126404	-86.923637	6192.551758	793.432251
657.542358	101.662407	6544.503906	896.297485
657.958252	-9.927631	6322.333984	903.639282
658.374084	-69.528564	6269.047363	869.371338
658.789917	-19.856936	6650.820313	857.128601
659.205688	-2.481785	6662.370605	604.443481
659.621338	-64.559555	6616.161621	616.731812
660.037048	225.409470	7220.172363	1057.639648
660.452637	-24.822149	6904.692383	1096.698486
660.868164	76.882660	6969.232910	1194.253662
661.283691	2.481545	6586.116699	979.458862
661.699158	-47.171146	6761.663574	901.192078
662.114502	-42.203907	6980.755371	837.536133
662.529846	-29.787918	6731.653320	741.942017
662.945129	34.733521	6586.116699	810.586975
663.360413	-64.559555	6625.404785	891.402527
663.775635	9.925827	6530.629883	638.844543
664.190674	-17.374418	6493.625000	702.685547
664.605835	84.317642	6987.667480	584.778015
665.020813	-42.203907	6817.048828	540.508545
665.435791	62.009785	6821.663574	471.585632
665.850769	-14.892141	6542.191406	587.236267
666.265625	0.000000	6777.819824	638.844543
666.680420	76.882660	6740.888184	604.443481
667.095215	37.213612	7125.839844	609.359131
667.509949	-32.270958	6789.359375	540.508545
667.924622	-29.787918	6664.680664	510.979156
668.339233	-29.787918	6560.687988	555.268372
668.753784	-34.753971	6563.000000	567.565674
669.168335	19.850122	6844.731934	533.127441
669.582825	52.092663	7107.424805	756.657410
669.997192	101.662407	6752.430176	1357.372681
670.411560	-17.374418	6835.504883	2271.421143
670.825867	-49.654930	6936.966797	3111.707764
671.240173	37.213612	7148.853516	3378.291504
671.654358	17.369307	6690.088379	2542.773926
672.068481	-19.856936	6925.441406	2076.397217
672.482605	-99.351952	6648.509766	1668.042114
672.896667	-27.304979	6733.961914	1408.427124
673.310669	24.811714	6634.647461	1371.963135
673.724609	17.369307	6930.051758	1135.736206
674.138489	-14.892141	6796.281738	959.900208
674.552307	-69.528564	6509.815918	815.487732
674.966064	-109.296486	6623.094238	729.676819
675.379822	17.369307	6927.746582	636.387878
675.793579	-81.953140	6572.247070	483.898712
676.207153	34.733521	6641.579102	456.807007
676.620789	-12.409834	6768.587891	545.428894
677.034241	54.572029	6604.606445	520.823792
677.447754	44.653534	6551.440430	520.823792
677.861206	84.317642	6662.370605	629.017578
678.274597	-7.445533	6558.375977	552.808594
678.687866	49.613056	6408.008789	621.646240
679.101135	66.967865	6618.472656	579.860535
679.514404	9.925827	6343.179688	501.133026
679.927551	12.407091	6262.095215	459.270386
680.340698	-7.445533	6071.917480	377.929932
680.753723	-86.923637	6236.600586	365.596527
681.166748	-22.339558	6141.528809	493.747467
681.579712	-49.654930	6148.487305	353.260712
681.992615	12.407091	6465.864258	392.726776
682.405457	148.715866	6303.802246	444.488892
682.818298	49.613056	6139.208496	501.133026
683.231018	131.384613	6206.463867	604.443481
683.643738	32.253189	6030.131348	651.126526
684.056335	-81.953140	5730.248047	734.583313
684.468994	-7.445533	5944.194336	759.109741
684.881531	-54.622669	5769.810547	813.037354
685.293945	-14.892141	5814.011230	710.047729
685.706482	-37.237225	5506.595703	624.103455
686.118774	24.811714	5520.586426	560.187500
686.531128	62.009785	5093.131836	520.823792
686.943481	-79.467987	4061.188477	400.123901
687.355713	57.051430	3808.198486	291.545807
687.767883	-64.559555	3226.607910	296.485199
688.179932	59.530727	3409.750244	331.050323
688.592041	-151.579865	3174.219727	252.016205
689.004089	-44.687473	3050.282959	256.958862
689.416016	-49.654930	3174.219727	331.050323
689.827881	-7.445533	3047.898438	289.075928
690.239868	-52.138680	3155.162842	219.879959
690.651611	-2.481785	3445.388184	281.665771
691.063354	-34.753971	3673.181641	335.986603
691.475098	-14.892141	3796.361816	335.986603
691.886719	4.963121	4174.486816	375.463409
692.298340	-2.481785	3950.135742	348.325775
692.709900	4.963121	4122.572754	355.728088
693.121460	59.530727	4172.127441	274.254730
693.532837	-44.687473	4174.486816	289.075928
693.944214	-27.304979	4127.293457	326.113678
694.355652	39.693733	4231.091309	296.485199
694.766846	-44.687473	4247.595703	333.518585
695.178101	-27.304979	4249.953125	308.832123
695.589294	-17.374418	4518.385742	439.560913
696.000366	-29.787918	4443.101563	303.893616
696.411438	-4.963674	4840.129883	380.396240
696.822510	-34.753971	4802.600586	353.260712
697.233459	-37.237225	4718.114746	269.313477
697.644409	-4.963674	4819.020996	261.900970
698.055298	-54.622669	4905.775391	261.900970
698.466064	-52.138680	4743.936523	259.430023
698.876831	-32.270958	4835.438965	343.390472
699.287537	9.925827	4727.505371	296.485199
699.698181	-7.445533	4617.119141	256.958862
700.108826	-136.652664	4664.104980	335.986603
700.519348	-67.043938	4360.701172	264.371948
700.929810	-44.687473	4497.217285	269.313477
701.340271	121.478790	4603.019531	350.793365
701.750732	143.764648	4558.359375	274.254730
702.161011	27.292219	4499.569336	289.075928
702.571350	-67.043938	4428.979980	323.645142
702.981567	47.133343	4758.019043	271.784149
703.391724	-14.892141	4556.008789	279.195496
703.801880	7.444594	4617.119141	202.568878
704.211914	-121.729477	4516.033691	212.461533
704.621948	-24.822149	4539.550293	249.544891
705.031921	-136.652664	4673.500000	229.769836
705.441895	-19.856936	4715.767090	244.601639
705.851746	-96.866043	4734.547363	274.254730
706.261536	86.795677	4901.088379	212.461533
706.671265	-72.013290	4605.370117	195.148361
707.081055	-72.013290	4696.983398	155.557053
707.490662	-2.481785	4802.600586	217.407211
707.900330	-2.481785	4854.199707	252.016205
708.309814	-62.075138	4520.737305	200.095413
708.719299	19.850122	4929.211914	180.304642
709.128784	128.908401	4983.097168	209.988495
709.538147	0.000000	4603.019531	167.932037
709.947510	9.925827	4783.831055	237.186188
710.356750	-29.787918	4480.749512	306.362915
710.766052	-34.753971	4760.365234	160.507324
711.175171	32.253189	4577.166016	205.042221
711.584290	62.009785	4743.936523	182.778885
711.993347	-49.654930	4565.412598	172.881424
712.402405	24.811714	4889.367676	256.958862
712.811401	-47.171146	4617.119141	125.846588
713.220276	-64.559555	4591.268555	175.355850
713.629150	-52.138680	4570.113770	155.557053
714.037964	-32.270958	4468.985840	91.165993
714.446777	12.407091	4532.496094	190.200897
714.855408	44.653534	4330.080078	227.297485
715.264099	-4.963674	4315.943848	205.042221
715.672668	-22.339558	4379.541016	120.893494
716.081177	24.811714	4186.281738	190.200897
716.489746	-47.171146	3803.464600	153.081711
716.898132	-89.409119	3668.441162	135.751694
717.306519	14.888249	3400.244385	158.032181
717.714844	-84.438271	3221.846436	155.557053
718.123108	9.925827	3086.050049	237.186188
718.531372	-47.171146	2952.453125	130.799408
718.939514	9.925827	2806.716309	162.982376
719.347595	-57.106766	2596.075439	118.416733
719.755676	-19.856936	2682.303955	145.655182
720.163696	-4.963674	2691.880127	56.465370
720.571716	2.481545	2639.199951	14.301774
720.979614	-29.787918	2816.279053	120.893494
721.387451	17.369307	2988.255859	170.406784
721.795227	14.888249	3378.853027	252.016205
722.202942	-49.654930	3207.560791	76.296791
722.610718	-57.106766	3359.835205	190.200897
723.018311	-27.304979	3055.052734	172.881424
723.425903	-49.654930	3064.591553	200.095413
723.833374	-59.590828	2916.636230	91.165993
724.240906	-99.351952	2844.963379	135.751694
724.648376	-59.590828	2876.028320	205.042221
725.055725	22.330971	2780.411865	160.507324
725.463013	54.572029	2952.453125	207.515472
725.870300	-52.138680	2861.691650	202.568878
726.277466	37.213612	3024.045410	205.042221
726.684631	-19.856936	2746.923096	143.179428
727.091797	34.733521	2876.028320	128.323044
727.498779	76.882660	2749.315186	229.769836
727.905823	37.213612	2854.522949	195.148361
728.312805	47.133343	2993.028564	202.568878
728.719666	161.092377	2962.001465	185.252899
729.126526	-2.481785	3004.959473	177.830292
729.533264	-72.013290	2751.708008	165.457321
729.940063	57.051430	2868.860596	125.846588
730.346680	29.772757	2854.522949	170.406784
730.753357	-7.445533	2911.859619	155.557053
731.159851	7.444594	2828.231934	182.778885
731.566406	-44.687473	2828.231934	175.355850
731.972900	-54.622669	3109.887695	73.818192
732.379272	-57.106766	3035.972900	182.778885
732.785645	-19.856936	3145.632813	187.726959
733.191895	-114.269333	3278.968018	165.457321
733.598206	4.963121	3507.132080	224.825180
734.004333	-76.982933	3597.306396	115.939857
734.410522	84.317642	3841.334229	269.313477
734.816528	-67.043938	3573.583984	165.457321
735.222656	-27.304979	3535.616699	138.227753
735.628662	-32.270958	3599.678467	61.423912
736.034546	-9.927631	3630.508789	227.297485
736.440430	-131.677887	3654.218506	177.830292
736.846252	-44.687473	3519.001709	145.655182
737.252014	-39.720581	3770.317139	197.622009
737.657715	-32.270958	3850.799561	219.879959
738.063354	57.051430	3917.034180	242.130020
738.468933	-22.339558	3793.994873	162.982376
738.874512	-42.203907	3803.464600	222.352615
739.280029	-54.622669	3770.317139	113.463020
739.685486	7.444594	3876.825439	110.985947
740.090881	54.572029	4108.410645	172.881424
740.496216	-37.237225	3985.590332	172.881424
740.901550	49.613056	4143.813477	182.778885
741.306702	14.888249	4025.758789	177.830292
741.711914	99.184853	3914.669434	224.825180
742.117004	14.888249	4089.524170	227.297485
742.522095	-2.481785	3950.135742	227.297485
742.927124	-47.171146	3973.773438	252.016205
743.332031	0.000000	3992.680176	202.568878
743.737000	-81.953140	3964.319336	123.370155
744.141785	69.446754	3995.043213	182.778885
744.546631	-27.304979	4018.670898	190.200897
744.951355	-9.927631	3973.773438	110.985947
745.356079	44.653534	4051.741455	162.982376
745.760620	-99.351952	3793.994873	110.985947
746.165283	32.253189	3964.319336	128.323044
746.569824	-9.927631	3782.156494	155.557053
746.974243	-44.687473	3895.748779	167.932037
747.378723	-34.753971	3850.799561	118.416733
747.783020	-39.720581	3767.948730	259.430023
748.187378	-29.787918	3611.537354	197.622009
748.591614	19.850122	3599.678467	229.769836
748.995850	7.444594	3846.066895	284.135956
749.399963	9.925827	3682.662598	234.714127
749.804077	-151.579865	3504.758301	219.879959
750.208130	-2.481785	3687.402588	101.076790
750.612122	-96.866043	3559.348389	155.557053
751.016052	-72.013290	3495.261230	177.830292
751.419922	-17.374418	3666.071045	207.515472
751.823792	57.051430	3587.818359	73.818192
752.227478	-42.203907	3504.758301	138.227753
752.631226	84.317642	3753.739502	205.042221
753.034851	-24.822149	3462.015381	66.381905
753.438477	-39.720581	3459.640381	217.407211
753.842102	-22.339558	3575.956787	155.557053
754.245544	131.384613	3523.749023	158.032181
754.648987	-44.687473	3319.409424	205.042221
755.052368	-32.270958	3426.382813	227.297485
755.455750	-17.374418	3350.324707	390.260803
755.859009	-27.304979	3198.036377	363.129517
756.262268	-9.927631	3183.747070	353.260712
756.665405	42.173752	3228.988525	368.063416
757.068542	49.613056	3171.837891	244.601639
757.471680	32.253189	3257.551270	306.362915
757.874634	-29.787918	3095.585693	190.200897
758.277588	-44.687473	3174.219727	182.778885
758.680420	-44.687473	2813.888672	162.982376
759.083374	-9.927631	2538.544922	175.355850
759.486084	-84.438271	2002.211670	118.416733
759.888916	14.888249	1671.036865	108.508774
760.291504	-47.171146	1065.541870	56.465370
760.694214	-32.270958	909.111450	138.227753
761.096802	-76.982933	730.256592	39.107502
761.499268	-19.856936	752.332458	182.778885
761.901733	-81.953140	597.650635	21.744568
762.304199	-39.720581	560.768738	31.666885
762.706543	-49.654930	427.821899	153.081711
763.108826	-64.559555	358.778442	51.506554
763.511108	54.572029	368.646240	165.457321
763.913208	4.963121	343.973541	93.643875
764.315369	-64.559555	341.505829	106.031639
764.717529	-39.720581	435.214996	63.903027
765.119568	116.525337	671.352783	172.881424
765.521545	12.407091	757.236938	155.557053
765.923462	2.481545	1136.312744	227.297485
766.325317	7.444594	1248.429810	271.784149
766.727112	-34.753971	1537.702271	242.130020
767.128845	9.925827	2026.333374	348.325775
767.530518	-14.892141	1987.735229	256.958862
767.932251	-19.856936	2197.402832	261.900970
768.333862	-101.837822	2038.391846	207.515472
768.735413	4.963121	2233.501221	234.714127
769.136841	74.404083	2579.299561	298.954803
769.538269	119.002182	2830.622559	269.313477
769.939636	-62.075138	2909.471680	318.707916
770.341003	37.213612	2816.279053	261.900970
770.742249	-9.927631	2842.573730	217.407211
771.143433	-34.753971	2746.923096	212.461533
771.544617	-12.409834	2572.108887	214.934479
771.945740	52.092663	2778.019775	289.075928
772.346802	7.444594	2572.108887	195.148361
772.747803	12.407091	2634.409180	202.568878
773.148682	-24.822149	2615.244629	153.081711
773.549622	29.772757	2612.848389	209.988495
773.950439	52.092663	2861.691650	103.554260
774.351196	-7.445533	2480.978271	148.130829
774.751892	66.967865	2833.012695	195.148361
775.152588	32.253189	2540.942627	165.457321
775.553162	89.273743	2766.060791	165.457321
775.953735	66.967865	2746.923096	155.557053
776.354309	39.693733	2665.543945	123.370155
776.754639	-12.409834	2509.766113	68.860817
777.155090	49.613056	2538.544922	53.986080
777.555420	-129.190582	2452.181396	76.296791
777.955750	19.850122	2555.328613	66.381905
778.355896	9.925827	2336.900391	76.296791
778.756104	0.000000	2584.093018	138.227753
779.156189	-37.237225	2348.915771	83.731850
779.556274	-39.720581	2459.381348	120.893494
779.956299	2.481545	2476.179443	106.031639
780.356201	-22.339558	2353.721436	44.067486
780.756165	59.530727	2483.377441	135.751694
781.156006	99.184853	2336.900391	153.081711
781.555786	-69.528564	2418.572998	202.568878
781.955505	-29.787918	2197.402832	86.210045
782.355225	59.530727	2406.566650	153.081711
782.754761	74.404083	2454.581055	172.881424
783.154358	-27.304979	2320.076172	172.881424
783.553894	-76.982933	2286.418213	91.165993
783.953369	-111.782791	2276.799072	76.296791
784.352783	-14.892141	2271.989258	56.465370
784.752075	-49.654930	2464.181152	128.323044
785.151367	-74.498131	2271.989258	148.130829
785.550598	123.955429	2231.094971	140.703568
785.949768	66.967865	2368.136963	78.775299
786.348877	-9.927631	2127.570557	58.944691
786.747986	54.572029	2132.388184	68.860817
787.147034	-17.374418	2214.250488	78.775299
787.545959	-44.687473	2011.861084	-17.961216
787.944885	19.850122	2110.705811	101.076790
788.343750	57.051430	2151.656982	96.121658
788.742493	7.444594	2019.097534	51.506554
789.141235	19.850122	1905.655273	-35.340942
789.539917	-2.481785	1980.495972	71.339622
789.938538	-32.270958	1903.239868	-22.926270
790.337158	4.963121	1968.429565	83.731850
790.735718	42.173752	2170.921387	172.881424
791.134094	-37.237225	1772.706909	36.627491
791.532532	49.613056	1963.602295	133.275528
791.930847	62.009785	2026.333374	120.893494
792.329224	81.839378	2134.797363	101.076790
792.727417	-24.822149	1867.001465	153.081711
793.125610	-7.445533	1859.751709	128.323044
793.523682	27.292219	1912.900757	73.818192
793.921753	-9.927631	2016.685547	187.726959
794.319824	19.850122	1886.330566	180.304642
794.717773	-32.270958	1903.239868	158.032181
795.115723	-27.304979	1987.735229	123.370155
795.513550	0.000000	2004.624146	158.032181
795.911377	-39.720581	1917.730957	113.463020
796.309082	156.142014	2158.881592	88.688141
796.706787	-24.822149	1821.076538	-3.068433
797.104370	-14.892141	1837.999268	78.775299
797.501953	59.530727	1987.735229	63.903027
797.899536	-19.856936	1859.751709	-17.961216
798.296936	-57.106766	1787.220825	29.186562
798.694397	0.000000	1789.639648	56.465370
799.091736	-47.171146	1806.568848	21.744568
799.489014	49.613056	1816.240845	51.506554
799.886230	81.839378	1963.602295	130.799408
800.283447	-37.237225	1886.330566	36.627491
800.680542	76.882660	1833.164551	56.465370
801.077637	-44.687473	1748.511230	11.820724
801.474670	27.292219	1782.383179	56.465370
801.871643	34.733521	1654.079468	145.655182
802.268555	12.407091	1784.802002	101.076790
802.665405	24.811714	1661.347168	86.210045
803.062256	141.288818	1830.747070	120.893494
803.458923	64.488876	1717.046265	71.339622
803.855652	4.963121	1508.580811	86.210045
804.252258	141.288818	2026.333374	58.944691
804.648804	32.253189	1763.029419	58.944691
805.045410	7.444594	1593.487427	101.076790
805.441833	47.133343	1951.533447	56.465370
805.838257	-69.528564	1738.831177	44.067486
806.234619	101.662407	1915.315918	34.147240
806.630859	29.772757	1598.336548	44.067486
807.027100	-99.351952	1547.406738	86.210045
807.423279	-44.687473	1641.964600	-52.725822
807.819458	49.613056	1825.911865	71.339622
808.215515	-2.481785	1695.255493	113.463020
808.611572	156.142014	1903.239868	120.893494
809.007507	-2.481785	1600.760986	73.818192
809.403381	54.572029	1559.535767	140.703568
809.799194	-44.687473	1566.812500	83.731850
810.195068	2.481545	1656.502197	177.830292
810.590759	44.653534	1571.663208	91.165993
810.986450	-57.106766	1610.457886	110.985947
811.382080	37.213612	1673.459106	135.751694
811.777649	54.572029	1518.289307	71.339622
812.173157	79.361000	1787.220825	162.982376
812.568665	-49.654930	1316.592773	63.903027
812.964050	29.772757	1549.832642	140.703568
813.359375	-44.687473	1428.441528	31.666885
813.754639	-101.837822	1360.379028	19.263830
814.149841	7.444594	1421.152222	-10.514354
814.545105	4.963121	1323.892090	118.416733
814.940186	29.772757	1301.991577	11.820724
815.335266	123.955429	1426.011719	29.186562
815.730347	111.571480	1712.204346	108.508774
816.125244	54.572029	1542.554443	-25.409019
816.520203	39.693733	2125.161377	39.107502
816.914978	69.446754	2329.690430	26.706001
817.309753	178.415176	3052.668213	185.252899
817.704468	217.991714	4084.801758	533.127441
818.099182	329.165466	5289.532715	940.336182
818.493774	232.826340	5992.977539	1308.717285
818.888367	351.376495	7201.770508	1721.315918
819.282898	346.441406	7803.042480	1895.422607
819.677307	425.357452	8296.687500	1991.990601
820.071716	339.038025	7709.133301	1648.661133
820.466003	304.477295	7445.369141	1405.996704
820.860291	267.426727	6870.103027	1016.116760
821.254517	245.185898	6132.249512	847.333069
821.648743	163.567261	5245.136719	668.317261
822.042786	84.317642	4556.008789	498.671234
822.436890	59.530727	3692.141846	427.239502
822.830872	138.812881	3338.435547	340.922638
823.224792	133.860855	2648.780518	135.751694
823.618774	94.229568	2339.303223	209.988495
824.012512	57.051430	2060.092285	29.186562
824.406311	54.572029	1927.390015	103.554260
824.799988	-54.622669	1721.887939	49.026920
825.193665	81.839378	1741.251099	96.121658
825.587280	76.882660	1595.912109	83.731850
825.980835	12.407091	1588.638306	103.554260
826.374329	-49.654930	1433.300903	6.858044
826.767761	32.253189	1462.450073	76.296791
827.161194	44.653534	1469.735962	56.465370
827.554443	27.292219	1263.041382	73.818192
827.947754	-32.270958	1228.943359	31.666885
828.340942	39.693733	1292.255859	123.370155
828.734131	66.967865	1233.815552	-25.409019
829.127136	-39.720581	1053.333130	-15.478778
829.520264	7.444594	1107.036377	39.107502
829.913208	52.092663	1265.476318	106.031639
830.306152	29.772757	1094.834595	36.627491
830.699097	2.481545	1124.115601	21.744568
831.091797	-49.654930	1153.385010	-42.790951
831.484619	-81.953140	987.369690	36.627491
831.877319	94.229568	1336.056519	128.323044
832.270020	69.446754	1150.946289	125.846588
832.662537	0.000000	1197.266968	4.376547
833.055054	-24.822149	926.237793	14.301774
833.447510	42.173752	1336.056519	78.775299
833.839966	44.653534	962.923157	16.782854
834.232361	-49.654930	997.145813	-10.514354
834.624634	42.173752	1019.137390	-37.824219
835.016907	-7.445533	1228.943359	93.643875
835.409058	-44.687473	977.591980	16.782854
835.801208	-44.687473	1153.385010	16.782854
836.193298	-64.559555	911.558350	46.547321
836.585327	-22.339558	1177.766968	39.107502
836.977295	-34.753971	1019.137390	66.381905
837.369202	-32.270958	1060.658569	26.706001
837.761047	-44.687473	1038.679810	36.627491
838.152832	-4.963674	1153.385010	61.423912
838.544617	49.613056	1150.946289	-17.961216
838.936218	-32.270958	1036.237305	-12.996447
839.327942	-52.138680	1019.137390	68.860817
839.719421	39.693733	1063.100220	29.186562
840.111023	62.009785	1128.994629	9.339437
840.502380	32.253189	1182.642578	113.463020
840.893860	-44.687473	845.462646	29.186562
841.285217	29.772757	1160.700317	98.599205
841.676453	89.273743	1211.888428	46.547321
842.067749	9.925827	1028.909180	-75.085365
842.458862	14.888249	1099.715698	14.301774
842.849976	7.444594	1163.138672	14.301774
843.241028	89.273743	1004.477112	-8.032230
843.632019	-24.822149	1170.453369	120.893494
844.022949	-72.013290	1072.866089	68.860817
844.413879	-79.467987	994.701782	-8.032230
844.804749	-32.270958	975.147339	-8.032230
845.195496	-99.351952	1014.250916	16.782854
845.586182	4.963121	1063.100220	-12.996447
845.976807	-89.409119	918.898621	68.860817
846.367432	-17.374418	1014.250916	26.706001
846.757996	-59.590828	977.591980	36.627491
847.148499	79.361000	1048.448975	46.547321
847.538879	22.330971	1153.385010	61.423912
847.929260	4.963121	1048.448975	-25.409019
848.319641	22.330971	1248.429810	16.782854
848.709839	-7.445533	1060.658569	51.506554
849.100098	-52.138680	911.558350	-30.374702
849.490234	-44.687473	948.251404	-22.926270
849.880310	64.488876	958.032837	9.339437
850.270325	19.850122	1014.250916	103.554260
850.660339	-54.622669	1036.237305	-12.996447
851.050171	74.404083	994.701782	63.903027
851.440125	12.407091	918.898621	-3.068433
851.829895	-37.237225	899.323181	16.782854
852.219604	0.000000	838.114746	4.376547
852.609314	-2.481785	962.923157	73.818192
852.998901	37.213612	896.875854	49.026920
853.388550	14.888249	796.462402	56.465370
853.778015	-67.043938	911.558350	-8.032230
854.167480	-89.409119	811.166138	76.296791
854.556885	54.572029	914.005188	78.775299
854.946228	14.888249	796.462402	-5.550212
855.335571	-22.339558	872.398010	9.339437
855.724731	-86.923637	744.974487	29.186562
856.113953	-64.559555	825.866699	41.587543
856.503052	-86.923637	843.013428	71.339622
856.892151	-27.304979	794.011414	4.376547
857.281067	-4.963674	889.533325	-32.857769
857.670105	-74.498131	759.689209	-20.443758
858.058960	89.273743	972.702637	16.782854
858.447754	29.772757	938.468262	19.263830
858.836609	94.229568	1128.994629	9.339437
859.225281	37.213612	1055.775146	61.423912
859.613892	14.888249	994.701782	46.547321
860.002502	37.213612	801.364075	-8.032230
860.391052	52.092663	695.902344	9.339437
860.779541	-19.856936	877.294250	11.820724
861.167969	71.925400	982.481018	21.744568
861.556335	19.850122	1036.237305	36.627491
861.944702	0.000000	717.989319	-25.409019
862.332947	7.444594	840.564148	-27.891876
862.721069	69.446754	904.217651	-27.891876
863.109253	-34.753971	769.497498	-15.478778
863.497314	114.048393	1043.564453	29.186562
863.885376	-57.106766	852.809814	44.067486
864.273315	-22.339558	884.638123	63.903027
864.661255	-7.445533	688.538269	-10.514354
865.049072	-57.106766	767.045532	130.799408
865.436890	-2.481785	735.163025	29.186562
865.824707	19.850122	896.875854	51.506554
866.212280	74.404083	857.707275	93.643875
866.599915	-42.203907	811.166138	-57.693825
866.987488	-9.927631	791.560425	-3.068433
867.375061	-4.963674	717.989319	58.944691
867.762451	17.369307	771.949097	83.731850
868.149841	24.811714	717.989319	-8.032230
868.537170	14.888249	784.206970	101.076790
868.924438	17.369307	767.045532	56.465370
869.311707	-42.203907	722.896301	148.130829
869.698853	-12.409834	771.949097	6.858044
870.085938	44.653534	757.236938	-70.115883
870.472961	0.000000	690.993103	-0.586624
870.859985	-4.963674	686.083435	58.944691
871.246887	79.361000	877.294250	-8.032230
871.633789	-42.203907	749.879883	-62.662384
872.020569	14.888249	762.141479	36.627491
872.407349	123.955429	1109.476563	39.107502
872.794067	19.850122	874.846191	19.263830
873.180725	91.751709	850.360901	16.782854
873.567322	22.330971	806.265137	63.903027
873.953796	-24.822149	757.236938	-10.514354
874.340332	76.882660	813.616455	19.263830
874.726624	54.572029	850.360901	73.818192
875.113037	-2.481785	632.055176	4.376547
875.499329	-76.982933	575.523865	86.210045
875.885559	-79.467987	661.530579	-15.478778
876.271729	-76.982933	548.470276	-50.241913
876.657898	12.407091	673.808167	-57.693825
877.044006	-29.787918	609.939880	56.465370
877.429932	19.850122	717.989319	44.067486
877.815918	-9.927631	668.897278	29.186562
878.201782	143.764648	742.521729	73.818192
878.587585	131.384613	904.217651	56.465370
878.973389	-62.075138	698.356812	36.627491
879.359070	34.733521	813.616455	78.775299
879.744751	-17.374418	607.482178	-55.209839
880.130310	-49.654930	646.794495	66.381905
880.515930	-14.892141	496.791260	11.820724
880.901367	-7.445533	570.605774	-17.961216
881.286804	79.361000	656.618835	58.944691
881.672180	-17.374418	762.141479	26.706001
882.057434	-89.409119	585.358765	-8.032230
882.442749	-22.339558	528.787842	31.666885
882.827942	-34.753971	690.993103	125.846588
883.213013	-59.590828	624.684082	29.186562
883.598145	12.407091	742.521729	26.706001
883.983154	17.369307	634.511963	24.225336
884.368042	-42.203907	553.389771	21.744568
884.753052	-22.339558	459.852509	-22.926270
885.137817	-72.013290	509.099396	-17.961216
885.522644	-32.270958	713.081665	71.339622
885.907349	-52.138680	479.555817	4.376547
886.292053	-81.953140	533.708740	-32.857769
886.676636	14.888249	499.253113	26.706001
887.061157	-27.304979	499.253113	11.820724
887.445740	-42.203907	445.071014	-65.146690
887.830078	14.888249	528.787842	19.263830
888.214539	47.133343	708.173645	61.423912
888.598816	76.882660	722.896301	83.731850
888.983093	-12.409834	612.397522	16.782854
889.367249	34.733521	474.630493	-50.241913
889.751465	-64.559555	543.550171	1.895081
890.135498	2.481545	550.929932	-30.374702
890.519531	64.488876	639.425110	-22.926270
890.903503	-2.481785	548.470276	-42.790951
891.287415	79.361000	698.356812	41.587543
891.671326	42.173752	619.769653	56.465370
892.055054	39.693733	499.253113	34.147240
892.438843	74.404083	464.778961	31.666885
892.822510	-67.043938	417.963135	-50.241913
893.206116	-72.013290	430.286285	-27.891876
893.589661	37.213612	464.778961	-30.374702
893.973206	2.481545	376.046326	-47.758110
894.356628	-2.481785	400.706604	-57.693825
894.739990	-29.787918	435.214996	-8.032230
895.123352	79.361000	504.176300	86.210045
895.506592	54.572029	326.696899	53.986080
895.889832	24.811714	188.311600	-52.725822
896.272949	-17.374418	309.415527	58.944691
896.656067	14.888249	277.308899	29.186562
897.039063	74.404083	454.925659	31.666885
897.422058	-14.892141	247.657410	-10.514354
897.804993	19.850122	260.013885	41.587543
898.187866	4.963121	257.542847	-20.443758
898.570618	-42.203907	282.249542	-10.514354
898.953369	-64.559555	264.955872	34.147240
899.336121	-37.237225	240.242310	34.147240
899.718689	34.733521	292.129486	1.895081
900.101257	-76.982933	116.525200	44.067486
900.483704	-34.753971	366.179504	-42.790951
900.866211	-91.894699	205.626709	-22.926270
901.248596	-44.687473	141.288681	26.706001
901.630920	-2.481785	277.308899	-55.209839
902.013184	-49.654930	123.955292	-37.824219
902.395386	-14.892141	383.445374	39.107502
902.777588	-2.481785	195.732941	-8.032230
903.159668	22.330971	292.129486	-45.274544
903.541687	-59.590828	252.600266	24.225336
903.923645	-49.654930	279.779266	63.903027
904.305603	-76.982933	193.259216	-42.790951
904.687500	-24.822149	225.409332	-25.409019
905.069275	-57.106766	136.336853	-30.374702
905.451050	4.963121	245.185760	-124.804184
905.832642	4.963121	245.185760	-75.085365
906.214294	-12.409834	343.973541	-32.857769
906.595825	-4.963674	314.353607	6.858044
906.977417	-4.963674	230.354095	44.067486
907.358826	9.925827	272.368011	-55.209839
907.740234	-64.559555	242.714020	-17.961216
908.121582	4.963121	297.068848	14.301774
908.502869	4.963121	299.538422	36.627491
908.884033	34.733521	304.477142	51.506554
909.265198	9.925827	109.094193	-3.068433
909.646301	54.572029	339.037903	-67.631233
910.027344	-32.270958	205.626709	41.587543
910.408325	27.292219	272.368011	-17.961216
910.789246	-59.590828	203.153381	-25.409019
911.170105	14.888249	331.633636	-47.758110
911.550903	49.613056	183.363449	34.147240
911.931641	44.653534	161.092239	-8.032230
912.312317	57.051430	213.045959	-12.996447
912.692932	-39.720581	264.955872	-0.586624
913.073547	0.000000	260.013885	-25.409019
913.453979	-106.810158	183.363449	-27.891876
913.834473	7.444594	267.426605	16.782854
914.214783	4.963121	260.013885	36.627491
914.595154	54.572029	272.368011	76.296791
914.975464	-9.927631	237.770386	41.587543
915.355652	-74.498131	237.770386	63.903027
915.735840	-9.927631	351.376495	-52.725822
916.115845	52.092663	415.498138	31.666885
916.495972	-76.982933	193.259216	16.782854
916.875854	17.369307	193.259216	21.744568
917.255859	39.693733	334.101868	-0.586624
917.635620	-14.892141	190.785385	34.147240
918.015503	94.229568	403.171997	39.107502
918.395203	91.751709	388.377563	-0.586624
918.774902	-2.481785	183.363449	-50.241913
919.154480	-47.171146	84.317505	-70.115883
919.534058	161.092377	605.024353	153.081711
919.913574	4.963121	250.128815	46.547321
920.292969	-49.654930	326.696899	11.820724
920.672363	0.000000	329.165314	-47.758110
921.051636	24.811714	282.249542	-47.758110
921.430969	2.481545	319.291199	-50.241913
921.810181	-12.409834	440.143219	14.301774
922.189331	39.693733	173.466095	-97.453644
922.568420	-89.409119	193.259216	-22.926270
922.947388	121.478790	351.376495	68.860817
923.326416	-22.339558	121.478790	-52.725822
923.705261	-57.106766	222.936951	81.253555
924.084106	114.048393	602.566467	76.296791
924.462891	-17.374418	183.363449	-20.443758
924.841675	96.707191	282.249542	63.903027
925.220337	-14.892141	205.626709	21.744568
925.598938	-49.654930	123.955292	-10.514354
925.977478	138.812881	614.855103	96.121658
926.355957	-12.409834	188.311600	41.587543
926.734436	-79.467987	180.889374	-42.790951
927.112732	121.478790	491.867249	113.463020
927.491089	-42.203907	180.889374	-20.443758
927.869324	-52.138680	185.837585	-65.146690
928.247559	57.051430	203.153381	-5.550212
928.625671	-29.787918	96.707062	-99.939438
929.003723	-2.481785	245.185760	21.744568
929.381775	57.051430	116.525200	-102.425476
929.759705	-57.106766	17.369171	-109.884079
930.137634	-121.729477	-109.296486	49.026920
930.515381	-32.270958	96.707062	9.339437
930.893250	138.812881	393.309509	91.165993
931.270935	69.446754	163.567261	-12.996447
931.648560	-69.528564	-47.171284	-55.209839
932.026123	-47.171146	-47.171284	-42.790951
932.403687	-76.982933	57.051296	-20.443758
932.781250	-47.171146	9.925827	-3.068433
933.158630	69.446754	442.607208	93.643875
933.536011	-47.171146	-7.445668	-25.409019
933.913208	-27.304979	-104.324074	-47.758110
934.290527	-22.339558	-91.894699	-10.514354
934.667664	128.908401	319.291199	86.210045
935.044800	-17.374418	-37.237358	-32.857769
935.421814	-79.467987	66.967735	-62.662384
935.798889	-4.963674	47.133209	-52.725822
936.175842	-27.304979	-64.559685	-77.570335
936.552673	-84.438271	153.666687	36.627491
936.929504	-34.753971	-34.754105	-62.662384
937.306274	-27.304979	-32.270958	-15.478778
937.683044	27.292219	96.707062	103.554260
938.059570	-22.339558	-32.270958	-10.514354
938.436218	69.446754	358.778442	73.818192
938.812744	-89.409119	-81.953278	-5.550212
939.189148	-34.753971	9.925827	-32.857769
939.565613	-79.467987	12.406956	-3.068433
939.941956	-74.498131	-81.953278	-40.307465
940.318237	17.369307	180.889374	-25.409019
940.694458	14.888249	19.850122	9.339437
941.070557	-32.270958	-69.528694	-52.725822
941.446655	39.693733	111.571342	-27.891876
941.822693	-12.409834	94.229431	39.107502
942.198669	-42.203907	-22.339691	-10.514354
942.574646	-57.106766	34.733383	-22.926270
942.950562	-22.339558	76.882530	-40.307465
943.326294	-27.304979	52.092525	-17.961216
943.702026	-27.304979	79.361000	-12.996447
944.077698	-64.559555	-7.445668	-67.631233
944.453369	-49.654930	-4.963809	-50.241913
944.828918	-4.963674	39.693600	-40.307465
945.204468	-9.927631	27.292219	-60.178051
945.579834	4.963121	96.707062	-45.274544
945.955261	44.653534	-19.857071	-42.790951
946.330627	9.925827	-22.339691	-52.725822
946.705811	-22.339558	-89.409248	-42.790951
947.081055	29.772757	-22.339691	14.301774
947.456177	126.431976	66.967735	36.627491
947.831238	-47.171146	-96.866180	-87.511131
948.206238	-57.106766	89.273613	-37.824219
948.581238	7.444594	-106.810295	-52.725822
948.956116	14.888249	29.772621	-27.891876
949.330933	4.963121	-79.468124	-47.758110
949.705811	-52.138680	7.444459	-80.055405
950.080505	-7.445533	-17.374554	-50.241913
950.455139	4.963121	-19.857071	-94.967819
950.829773	-62.075138	-52.138813	-75.085365
951.204346	245.185898	627.141174	158.032181
951.578735	121.478790	304.477142	76.296791
951.953186	-14.892141	57.051296	9.339437
952.327515	12.407091	-49.654930	-3.068433
952.701843	2.481545	-89.409248	-42.790951
953.076172	-12.409834	-59.590965	-17.961216
953.450195	-84.438271	-74.498131	-52.725822
953.824341	24.811714	62.009785	71.339622
954.198486	-52.138680	4.962986	46.547321
954.572449	81.839378	272.368011	31.666885
954.946350	2.481545	14.888115	-47.758110
955.320251	37.213612	193.259216	44.067486
955.694092	-19.856936	-12.409968	-37.824219
956.067871	4.963121	89.273613	-12.996447
956.441589	86.795677	141.288681	24.225336
956.815125	-44.687473	29.772621	-12.996447
957.188721	7.444594	27.292219	-112.370544
957.562256	-72.013290	17.369171	-70.115883
957.935730	19.850122	24.811581	-5.550212
958.309021	-32.270958	-42.204041	-80.055405
958.682373	-79.467987	-57.106766	-42.790951
959.055664	-34.753971	-59.590965	-72.600502
959.428955	-17.374418	22.330835	21.744568
959.802063	-59.590828	-124.216591	-50.241913
960.175110	-49.654930	-64.559685	-70.115883
960.548157	-104.323944	-29.788054	-17.961216
960.921143	17.369307	32.253056	-30.374702
961.294128	-7.445533	-37.237358	-8.032230
961.666809	-9.927631	4.962986	-55.209839
962.039612	-57.106766	86.795677	-52.725822
962.412415	-7.445533	24.811581	-77.570335
962.785095	-14.892141	-69.528694	-47.758110
963.157715	-47.171146	52.092525	34.147240
963.530151	-64.559555	-19.857071	-67.631233
963.902649	-14.892141	81.839241	4.376547
964.275146	-22.339558	74.403946	-60.178051
964.647522	104.139732	19.850122	-82.540459
965.019714	-72.013290	-59.590965	-129.778519
965.392029	24.811714	52.092525	1.895081
965.764160	-44.687473	37.213474	16.782854
966.136292	-149.091690	14.888115	-20.443758
966.508423	-49.654930	-76.983070	-5.550212
966.880371	-32.270958	-0.000135	11.820724
967.252319	91.751709	175.940613	16.782854
967.624207	-57.106766	-7.445668	-65.146690
967.996094	-14.892141	64.488747	34.147240
968.367737	47.133343	168.516876	4.376547
968.739441	-57.106766	74.403946	-20.443758
969.111084	-114.269333	27.292219	4.376547
969.482666	-32.270958	-19.857071	-80.055405
969.854248	-44.687473	-29.788054	11.820724
970.225586	9.925827	111.571342	-67.631233
970.596985	-34.753971	101.662277	6.858044
970.968323	54.572029	66.967735	36.627491
971.339661	19.850122	180.889374	-5.550212
971.710754	-22.339558	185.837585	-12.996447
972.081909	-7.445533	183.363449	-42.790951
972.453064	-42.203907	99.184723	-12.996447
972.824097	136.336990	499.253113	34.147240
973.194946	-44.687473	-57.106766	-94.967819
973.565918	17.369307	27.292219	-25.409019
973.936768	-37.237225	69.446617	-25.409019
974.307556	14.888249	-111.782928	36.627491
974.678284	-99.351952	34.733383	-35.340942
975.048828	22.330971	86.795677	-32.857769
975.419495	49.613056	109.094193	9.339437
975.790039	2.481545	96.707062	-0.586624
976.160522	49.613056	62.009785	-8.032230
976.530884	-57.106766	-0.000135	-37.824219
976.901245	-2.481785	-7.445668	-32.857769
977.271606	-44.687473	44.653534	-107.397728
977.641846	24.811714	262.484924	-3.068433
978.012024	-37.237225	14.888115	81.253555
978.382019	-34.753971	22.330835	41.587543
978.752136	153.666824	311.884613	78.775299
979.122131	24.811714	242.714020	66.381905
979.492065	-72.013290	62.009785	34.147240
979.861877	-27.304979	-59.590965	-25.409019
980.231689	-91.894699	-52.138813	-52.725822
980.601440	-49.654930	-64.559685	-22.926270
980.971191	-12.409834	62.009785	-52.725822
981.340820	-19.856936	4.962986	-67.631233
981.710266	-17.374418	-0.000135	-8.032230
982.079773	-17.374418	170.991608	113.463020
982.449280	-74.498131	57.051296	-70.115883
982.818604	66.967865	208.099792	53.986080
983.187866	-17.374418	91.751572	-89.996498
983.557129	-37.237225	-54.622803	21.744568
983.926331	4.963121	27.292219	41.587543
984.295471	-34.753971	12.406956	4.376547
984.664612	-39.720581	19.850122	-82.540459
985.033569	-4.963674	12.406956	19.263830
985.402527	-49.654930	59.530590	14.301774
985.771362	39.693733	141.288681	6.858044
986.140259	76.882660	195.732941	53.986080
986.508911	29.772757	148.715729	-25.409019
986.877625	81.839378	279.779266	24.225336
987.246277	0.000000	114.048256	-10.514354
987.614929	-27.304979	44.653534	-37.824219
987.983459	-24.822149	136.336853	-92.482109
988.351807	19.850122	227.881760	36.627491
988.720215	-106.810158	49.612923	-17.961216
989.088623	22.330971	27.292219	-107.397728
989.456909	54.572029	128.908264	11.820724
989.825012	14.888249	-2.481920	-32.857769
990.193115	-2.481785	-24.822283	-12.996447
990.561279	29.772757	109.094193	-62.662384
990.929321	-22.339558	47.133209	-159.632950
991.297302	-17.374418	109.094193	-70.115883
991.665100	9.925827	-57.106766	-12.996447
992.033020	-19.856936	101.662277	-20.443758
992.400818	-69.528564	-12.409968	-45.274544
992.768494	-2.481785	119.002045	41.587543
993.136047	-79.467987	37.213474	34.147240
993.503723	-64.559555	-19.857071	24.225336
993.871277	0.000000	111.571342	16.782854
994.238770	-7.445533	42.173615	-67.631233
994.606140	-104.323944	-52.138813	-35.340942
994.973450	-27.304979	-67.044075	-70.115883
995.340759	-76.982933	-44.687611	-8.032230
995.708008	-37.237225	74.403946	-62.662384
996.075195	7.444594	-44.687611	-8.032230
996.442200	-64.559555	111.571342	-60.178051
996.809265	-29.787918	-52.138813	-72.600502
997.176270	-94.380249	-94.380386	66.381905
997.543152	-34.753971	-64.559685	-35.340942
997.910095	4.963121	-24.822283	4.376547
998.276733	-67.043938	71.925262	-27.891876
998.643494	-129.190582	-91.894699	-17.961216
999.010193	-126.703529	-17.374554	-52.725822
999.376831	17.369307	47.133209	-37.824219
999.743286	-72.013290	-34.754105	-5.550212
1000.109802	94.229568	74.403946	-37.824219
1000.476257	-94.380249	37.213474	-97.453644
1000.842651	-54.622669	-19.857071	-35.340942
1001.208923	-9.927631	12.406956	-89.996498
1001.575134	-52.138680	-34.754105	-50.241913
1001.941284	-22.339558	42.173615	-20.443758
1002.307434	-52.138680	-27.305115	-75.085365
1002.673523	-27.304979	-22.339691	-75.085365
1003.039429	-101.837822	-42.204041	46.547321
1003.405334	79.361000	84.317505	-8.032230
1003.771179	-62.075138	-17.374554	-132.265839
1004.137024	12.407091	-76.983070	-22.926270
1004.502808	-34.753971	-91.894699	-20.443758
1004.868408	32.253189	-22.339691	-87.511131
1005.234009	-27.304979	-7.445668	-50.241913
1005.599609	-7.445533	156.142014	-8.032230
1005.965149	-64.559555	-2.481920	-0.586624
1006.330444	-101.837822	-22.339691	-55.209839
1006.695862	-81.953140	-14.892141	-57.693825
1007.061218	-17.374418	-2.481920	16.782854
1007.426453	94.229568	29.772621	36.627491
1007.791626	-52.138680	76.882530	6.858044
1008.156677	52.092663	32.253056	29.186562
1008.521729	64.488876	86.795677	-17.961216
1008.886780	-91.894699	19.850122	-42.790951
1009.251709	-47.171146	74.403946	-50.241913
1009.616577	-27.304979	-67.044075	-32.857769
1009.981384	-7.445533	57.051296	19.263830
1010.346130	79.361000	111.571342	16.782854
1010.710754	54.572029	225.409332	4.376547
1011.075439	49.613056	215.518890	61.423912
1011.439941	14.888249	19.850122	-12.996447
1011.804443	-64.559555	42.173615	1.895081
1012.168884	-19.856936	-12.409968	-8.032230
1012.533325	-91.894699	-62.075272	-80.055405
1012.897522	-89.409119	-12.409968	-25.409019
1013.261780	-116.755981	-129.190720	-40.307465
1013.626038	-7.445533	39.693600	6.858044
1013.990112	-81.953140	2.481545	-57.693825
1014.354187	-54.622669	22.330835	-62.662384
1014.718140	-24.822149	39.693600	-25.409019
1015.082153	17.369307	59.530590	21.744568
1015.446045	-2.481785	49.612923	-50.241913
1015.809937	-57.106766	39.693600	-57.693825
1016.173523	-69.528564	7.444459	-22.926270
1016.537170	-29.787918	81.839241	24.225336
1016.900879	2.481545	62.009785	-67.631233
1017.264404	-59.590828	-7.445668	-42.790951
1017.627991	-19.856936	2.481545	-92.482109
1017.991333	-59.590828	-99.352089	-102.425476
1018.354675	-7.445533	27.292219	-3.068433
1018.718018	-67.043938	-52.138813	-47.758110
1019.081299	-44.687473	126.431839	-47.758110
1019.444397	-47.171146	96.707062	-15.478778
1019.807495	0.000000	-79.468124	-10.514354
1020.170593	17.369307	-22.339691	-40.307465
1020.533691	-64.559555	146.240250	-52.725822
1020.896606	-2.481785	49.612923	-60.178051
1021.259460	-81.953140	27.292219	-10.514354
1021.622253	-64.559555	-32.270958	9.339437
1021.985046	-86.923637	-79.468124	-57.693825
1022.347778	-49.654930	-37.237358	-62.662384
1022.710327	-49.654930	-47.171284	-20.443758
1023.072876	-52.138680	-47.171284	63.903027
1023.435364	-44.687473	-79.468124	-10.514354
1023.797852	-64.559555	-19.857071	-40.307465
1024.160278	-116.755981	-74.498131	-60.178051
1024.522461	-74.498131	-84.438408	-15.478778
1024.884766	-79.467987	-94.380386	-122.317329
1025.246948	-91.894699	27.292219	-47.758110
1025.609131	-89.409119	-67.044075	-25.409019
1025.971069	44.653534	32.253056	44.067486
1026.333130	-57.106766	-37.237358	-85.025742
1026.694946	-42.203907	54.571896	-5.550212
1027.056885	71.925400	262.484924	96.121658
1027.418823	-104.323944	-27.305115	34.147240
1027.780396	-27.304979	32.253056	-60.178051
1028.142090	-4.963674	57.051296	4.376547
1028.503784	-17.374418	-101.837959	1.895081
1028.865479	-32.270958	-57.106766	-92.482109
1029.226807	-39.720581	-74.498131	-42.790951
1029.588135	-32.270958	-9.927766	-27.891876
1029.949707	-32.270958	-0.000135	1.895081
1030.310913	54.572029	84.317505	-0.586624
1030.672241	-2.481785	27.292219	-32.857769
1031.033325	22.330971	24.811581	34.147240
1031.394531	-9.927631	111.571342	-10.514354
1031.755493	-24.822149	69.446617	-35.340942
1032.116577	-4.963674	-12.409968	26.706001
1032.477417	39.693733	-2.481920	-55.209839
1032.838257	7.444594	-161.533432	-80.055405
1033.199097	-59.590828	-4.963809	-57.693825
1033.559937	39.693733	-9.927766	-40.307465
1033.920654	12.407091	7.444459	39.107502
1034.281128	-9.927631	7.444459	21.744568
1034.641724	59.530727	49.612923	19.263830
1035.002197	39.693733	168.516876	29.186562
1035.362671	86.795677	59.530590	-3.068433
1035.722900	-37.237225	-57.106766	-45.274544
1036.083252	17.369307	66.967735	36.627491
1036.443481	-37.237225	-32.270958	-8.032230
1036.803711	22.330971	-59.590965	-15.478778
1037.163940	111.571480	237.770386	41.587543
1037.523804	7.444594	59.530590	-50.241913
1037.883789	-57.106766	-131.678009	-27.891876
1038.243774	-39.720581	-62.075272	-62.662384
1038.603638	14.888249	64.488747	19.263830
1038.963257	42.173752	121.478790	-35.340942
1039.323120	-14.892141	-69.528694	-32.857769
1039.682861	-19.856936	-116.755981	-70.115883
>>>>>End Processed Spectral Data<<<<<
