Jaz Data File
++++++++++++++++++++++++++++++++++++
Date: Wed Dec 03 21:00:09 2014
User: jaz
Dark Spectrum Present: Yes
Reference Spectrum Present: Yes
Processed Spectrum Present: No
Spectrometers: JAZA2310
Integration Time (usec): 4090 (JAZA2310)
Spectra Averaged: 5 (JAZA2310)
Boxcar Smoothing: 0 (JAZA2310)
Correct for Electrical Dark: Yes (JAZA2310)
Strobe/Lamp Enabled: No (JAZA2310)
Correct for Detector Non-linearity: Yes (JAZA2310)
Correct for Stray Light: No (JAZA2310)
Number of Pixels in Processed Spectrum: 2048
>>>>>Begin Processed Spectral Data<<<<<
W	D	R	S
188.301102	0.000000	0.000000	0.000000
188.764923	0.000000	0.000000	0.000000
189.228699	-62.301064	-82.134003	-74.912369
189.692459	-61.804218	-61.262249	-23.746460
190.156158	-53.854870	-43.874691	-32.684765
190.619812	-18.096642	-14.079770	-33.678101
191.083435	-16.607244	1.804648	-12.327209
191.547043	-20.579054	4.782534	-15.305824
192.010590	3.248462	-5.640522	-10.341414
192.474091	13.670219	-13.086902	-3.888347
192.937561	31.531572	-12.590474	6.534669
193.401001	38.972206	45.961025	41.264362
193.864410	9.700178	-6.137026	9.512318
194.327759	16.647373	-5.640657	40.768250
194.791077	12.181451	59.845993	16.459400
195.254349	17.639858	23.638819	34.815945
195.717575	43.436249	39.513386	10.008554
196.180786	32.027626	3.789832	32.831799
196.643951	-2.707480	12.722740	-14.809513
197.107071	16.151325	9.249015	-0.910039
197.570145	12.181451	-25.002964	5.542132
198.033203	-17.103706	18.181232	14.474641
198.496216	18.632195	42.489109	-12.327209
198.959167	9.700178	7.263879	7.030797
199.422089	-31.006737	-33.941326	5.045722
199.884979	-15.614334	14.211494	16.459536
200.347855	-47.893738	8.256658	-35.664547
200.810654	0.766948	-18.548153	-15.802410
201.273422	-6.678488	-3.158604	-30.201839
201.736160	-29.020582	-57.784348	-17.788254
202.198853	-36.469788	-40.894627	-58.017551
202.661514	-43.919945	-41.887966	-50.565735
203.124130	-24.054741	0.315581	7.030797
203.586700	-22.068686	-14.079905	-14.312936
204.049240	-62.797775	-24.506298	-8.355686
204.511734	-43.919807	-38.411221	-51.062351
204.974197	-42.926437	-50.332428	-39.141266
205.436615	-42.926437	-25.499496	-20.767416
205.899002	-54.351917	-82.631020	-18.781336
206.361343	-76.711945	-31.458347	-50.565601
206.823654	-31.006872	-39.901306	-19.774302
207.285919	-51.371048	-60.765411	-56.527279
207.748123	-40.443077	-18.051680	-44.604805
208.210327	-52.364700	-24.009640	-24.243116
208.672485	-51.867668	-18.548018	-9.845144
209.134583	-42.429893	-32.451660	-19.277817
209.596649	-29.516878	-34.934681	-61.495602
210.058670	-31.006872	-20.534090	-54.043205
210.520676	-29.517014	-14.576210	-16.795458
210.982635	-51.867668	-56.293941	-46.591763
211.444534	-66.773125	-81.139977	-24.242981
211.906403	-33.489964	-53.313110	-67.955154
212.368240	-52.364700	-58.281162	-47.088341
212.830048	-11.146309	-56.790607	-30.698282
213.291779	-17.103571	-18.548018	-57.024075
213.753494	-55.345352	-45.861622	-26.229246
214.215179	-51.371048	-38.411354	-0.910174
214.676819	-56.338932	-49.835686	-10.837958
215.138412	-43.919945	-38.907867	-19.277817
215.599960	-84.664284	-19.044632	-38.147839
216.061493	-27.034222	-44.371521	-33.181496
216.522949	-31.007008	-20.534090	-12.327209
216.984406	-15.117749	-27.982222	-15.305824
217.445801	-49.880672	-51.326061	5.542132
217.907166	-31.006872	-35.431297	-15.802410
218.368484	-37.463051	-26.492573	-31.691582
218.829773	-20.082561	-17.058744	-13.320064
219.291031	-50.377548	-25.996033	-23.746460
219.752228	-66.276108	-33.941460	-28.215443
220.213379	-31.006737	-28.478779	-30.201839
220.674500	-33.489964	-39.901306	-30.201839
221.135574	-21.075684	-24.009911	-51.559238
221.596634	-52.364429	-34.438068	-47.585060
222.057648	-37.959690	-20.534090	-51.062351
222.518600	-50.377548	-28.975475	-36.161171
222.979553	-35.973164	-44.868217	-20.270655
223.440430	-18.593115	-14.079770	-25.732708
223.901276	-46.403450	-23.016739	-35.167931
224.362076	-40.939739	-12.094051	-30.201839
224.822845	-30.510159	-64.740349	-48.081917
225.283569	-29.020582	-15.072790	-33.181496
225.744278	-62.300926	-22.520227	-49.075382
226.204910	-29.517147	-67.224876	-12.823635
226.665512	-32.496635	-49.835686	-26.229111
227.126114	-39.449631	-38.411221	-28.712002
227.586639	-58.823105	-31.458347	-39.141129
228.047119	-59.319923	-18.548153	-52.055996
228.507568	-31.503590	-27.485668	-37.154427
228.967972	-51.371048	-31.458347	-24.739508
229.428345	-67.269882	1.308342	-36.657932
229.888687	-75.221062	-34.438068	-35.664684
230.348984	-35.973164	-42.384640	-38.147839
230.809219	-22.565329	-33.444721	-33.677963
231.269440	-37.959553	-28.478779	-41.624569
231.729614	-27.034086	-42.384640	-29.208565
232.189758	-10.153220	-39.901306	-28.712002
232.649841	-10.649762	-20.534090	-43.611286
233.109894	-64.288620	-21.030584	-38.644482
233.569901	-52.861328	-51.822815	-44.604942
234.029892	-32.993366	-50.829037	-10.341414
234.489822	-23.061840	-42.881454	-24.242981
234.949707	4.737589	-63.746490	-42.617920
235.409561	0.270633	-22.023586	-38.644482
235.869385	-40.443077	-29.968611	-34.174839
236.329163	-52.364700	-23.016603	-30.698416
236.788895	-45.410172	-47.848618	-21.760279
237.248581	-78.699997	-25.995897	-23.746460
237.708237	-46.900162	-32.948120	-12.327209
238.167847	-51.371048	-10.604671	-29.705269
238.627441	-23.558357	-22.520227	-29.208700
239.086960	-44.913334	-49.835415	-2.399174
239.546463	-18.096506	-51.822815	-19.774166
240.005920	-35.973164	-44.371387	-34.671452
240.465332	-59.319923	-63.746624	-57.520878
240.924698	-41.932945	-53.809746	-29.705269
241.384033	0.766948	17.188755	-41.127899
241.843338	-62.797909	-18.548018	-11.830788
242.302597	-46.900162	-20.037600	-5.873654
242.761810	-17.103571	-28.975340	12.986028
243.220993	-51.867668	-29.472042	-48.578648
243.680115	-73.233131	-14.079770	-23.746460
244.139221	-91.126411	-41.887966	-57.024075
244.598282	-42.429893	-30.465185	-43.611420
245.057297	-51.371048	-68.715569	-8.852213
245.516266	-65.779099	-44.868351	-45.101505
245.975189	-30.510292	-39.404652	-50.565735
246.434082	-71.742325	-47.848618	-10.837823
246.892944	-39.449631	-25.499632	-28.215443
247.351761	-41.436409	-34.934681	-24.243116
247.810516	-32.993229	-63.746624	-43.611420
248.269272	-38.953114	-29.968611	-50.068855
248.727951	-35.973030	-52.816204	-47.585060
249.186600	-27.034222	-70.206291	-50.069126
249.645218	-48.390331	-18.548018	-42.121243
250.103790	-40.939739	-47.848618	-7.859299
250.562317	-33.986568	-47.351765	-1.406503
251.020813	-39.449631	-24.009775	-21.760279
251.479279	-7.671247	-42.881454	-42.617920
251.937668	-43.919945	23.142830	-16.795324
252.396057	-37.463051	-25.996033	-17.788254
252.854385	-61.307240	-36.921307	-20.767282
253.312683	-2.707480	-17.058609	-8.852213
253.770920	-21.075684	-22.023722	-36.657932
254.229126	-54.351646	-29.968611	-33.181496
254.687302	-35.476543	-20.534225	-31.195131
255.145432	-53.854870	-41.391426	-26.725653
255.603500	-72.736053	-20.534225	-53.049526
256.061584	-60.810539	-51.325928	-58.514366
256.519592	-54.351784	-53.312973	-21.263779
256.977570	-52.861462	-90.087074	-38.644482
257.435455	-39.946285	-71.200264	-17.291786
257.893372	-30.013718	-47.351898	-38.147976
258.351196	-53.854870	-40.894627	-33.181496
258.808990	-62.797909	-44.868351	-56.030346
259.266754	-57.829475	-48.842075	-22.753429
259.724487	-83.173058	-34.438206	-47.088478
260.182190	-34.979790	-59.274792	-43.114735
260.639832	-30.013718	-28.478779	-40.134571
261.097443	-29.517014	-28.975475	-12.823499
261.554993	-8.167768	-37.417805	-15.305960
262.012512	-35.973030	-31.458347	-24.242981
262.469971	-33.489964	-40.894627	-36.657932
262.927429	-53.358101	-44.868217	-27.718887
263.384827	-69.754517	-39.901306	-53.049526
263.842194	-22.565329	-51.325928	-35.664547
264.299530	-56.835735	-8.122680	-27.222200
264.756805	-43.423119	-33.444721	-0.413714
265.214050	-20.082561	-13.086902	0.082472
265.671234	-22.565329	-13.583334	-55.533688
266.128387	-50.874294	-35.431431	-49.571983
266.585510	-27.530771	-46.358330	-18.781336
267.042572	-17.103571	-41.888100	8.023445
267.499573	-6.182114	-35.431431	-33.678101
267.956604	-56.835735	-48.345345	3.060580
268.413574	-71.245399	4.782399	-11.334371
268.870483	-6.678353	-54.306656	-37.651196
269.327362	-55.345352	-36.921173	-14.809513
269.784180	-37.959824	-49.835686	-16.795324
270.240936	-42.926437	-62.752781	-45.598206
270.697693	-25.544462	-12.094051	-2.895516
271.154419	-25.048065	-27.982222	-15.802410
271.611053	-17.600172	-20.534225	-41.127899
272.067688	-56.338932	-35.431431	-44.107975
272.524292	-39.946419	-30.465321	-32.685032
272.980835	-24.054741	-63.249767	-14.809378
273.437347	-30.510292	-33.941597	-22.256784
273.893799	-74.724098	-32.948257	-14.312936
274.350250	-45.410034	-26.989119	-16.298729
274.806610	-29.020447	-51.325790	-22.256920
275.262939	-37.463051	-34.934681	-10.341414
275.719238	-56.835735	-4.151575	-31.691582
276.175507	-41.933079	-14.576345	-13.320199
276.631714	-44.416637	-19.044632	-17.788254
277.087891	-72.239120	-17.555075	-21.263914
277.544067	-28.523884	-38.411221	-58.017689
278.000122	-33.986568	-24.506298	-40.134571
278.456177	-41.436409	-48.345345	-29.705269
278.912201	-30.013718	-42.881592	-24.739508
279.368164	-19.586346	-3.158874	-23.249807
279.824097	-94.109047	-49.338676	-22.753429
280.279968	-49.880672	-74.678963	-37.651196
280.735840	-44.913334	-26.492708	-59.011318
281.191620	-45.410034	3.789967	-46.591763
281.647400	-87.646721	-43.378139	-56.030346
282.103149	-14.621305	-31.955069	-16.795189
282.558838	-6.678353	-15.569239	-30.201839
283.014465	-40.443077	-32.948257	-7.362915
283.470062	-37.959690	-43.874825	-31.691582
283.925629	-26.537676	-38.907867	-52.056133
284.381134	-37.463051	-29.968477	-62.986141
284.836639	-32.000042	-26.492439	2.564284
285.292053	-63.294765	-62.752781	-42.121243
285.747467	-49.383930	-48.345345	-56.527142
286.202820	-16.607244	-7.626024	-12.823635
286.658142	-12.635568	-52.816338	-30.201839
287.113434	-1.714669	-27.982222	-24.739508
287.568634	-32.000175	-33.444855	-2.895516
288.023804	-8.167633	-40.397964	-11.334371
288.478973	-29.517147	-27.982222	-8.355686
288.934113	-25.048065	-24.506298	-15.802410
289.389130	-16.607244	-52.816204	1.075237
289.844208	-53.854870	-72.194115	-53.546432
290.299164	-37.462917	-18.548018	-44.108112
290.754089	-30.013449	1.804648	-43.114601
291.208984	-61.307377	-22.520227	-15.305824
291.663879	-16.607244	-3.655087	1.075237
292.118683	-47.893604	-31.458347	-27.719021
292.573456	-14.621440	-29.968611	-33.181496
293.028198	-21.572182	-37.417938	-35.167931
293.482849	-47.893738	-20.534225	-27.719021
293.937561	-49.880672	-33.444855	-1.902836
294.392151	-4.196661	-7.129777	-20.270788
294.846741	-53.854870	-25.002964	-39.637917
295.301239	-23.061705	-54.803440	-11.830788
295.755737	-13.628293	-28.478914	-25.236038
296.210175	-58.822968	-27.982357	-47.585060
296.664581	-47.397152	-27.485804	-32.684898
297.118958	-57.829342	-20.534090	-34.671452
297.573242	-39.449631	-56.293941	-40.631100
298.027557	-27.034222	-49.338810	-19.774166
298.481812	-48.390465	-25.996033	-68.451912
298.935974	-68.760704	-50.829308	-11.830788
299.390137	-36.966419	-18.051544	10.504654
299.844238	-88.640862	-4.647932	-37.154427
300.298340	-24.551266	7.760405	-30.698416
300.752350	-38.952980	-40.894489	0.578924
301.206360	-20.082697	-19.540977	-20.270655
301.660278	-39.449764	-23.513121	-42.121243
302.114197	-44.913334	-27.485804	-4.384701
302.568054	-45.410034	-46.358330	-18.284861
303.021881	-72.736053	-37.417938	-12.823635
303.475677	-65.282356	-28.975475	-28.712137
303.929413	-53.854870	-11.597497	-8.355822
304.383118	-48.390331	-52.319439	-12.823499
304.836761	-42.926437	-0.180738	-32.188305
305.290375	-30.013718	-26.492439	-22.256784
305.743958	-25.047930	-19.541113	3.060580
306.197510	-22.068821	-31.954935	-30.201706
306.650970	-56.339069	-38.907867	-13.320064
307.104431	-32.496635	-15.072790	3.060580
307.557800	-13.628428	-16.562283	-40.134571
308.011169	-32.496635	-25.002964	-26.725788
308.464508	-35.973030	10.241624	-6.866671
308.917755	-23.558357	-22.023722	-10.341549
309.371063	-30.013582	-32.948257	-32.684898
309.824219	-55.345352	-2.662395	-59.508137
310.277374	-22.068686	-12.590340	-32.188305
310.730499	-63.294903	-62.752781	-28.712002
311.183563	-37.959824	-31.955069	-30.698416
311.636597	-26.537676	-25.499632	-33.181496
312.089569	-56.835869	-46.855045	-39.141129
312.542511	-65.282356	-21.030584	-31.194998
312.995422	-11.642589	-13.086902	-55.036903
313.448273	-51.371048	-43.378139	-14.312936
313.901093	-39.449631	-29.968477	-28.712002
314.353882	-58.823105	-48.345478	-9.845010
314.806580	-70.748344	-46.855183	-77.894173
315.259308	-32.496635	-28.478779	-3.888212
315.711975	-25.544462	-54.306656	-38.147976
316.164581	-49.880672	-48.842075	-34.174706
316.617126	-18.096642	-37.418076	-11.334236
317.069672	-34.483177	-44.371655	-21.760143
317.522156	-72.239258	-35.927917	-44.604805
317.974579	-48.887196	-26.492573	-26.229246
318.427002	-48.887329	1.308342	-38.147976
318.879333	-22.565329	-13.086902	-34.174706
319.331665	-35.973030	-36.424679	-65.967468
319.783936	-26.041134	-63.249767	-33.181496
320.236176	-5.685744	-31.954935	-37.651196
320.688354	-41.436409	-57.287544	-27.222336
321.140503	-10.153220	-31.458347	0.082472
321.592651	3.248597	-25.499361	-12.327209
322.044647	-14.124865	-26.989119	-24.242981
322.496704	-71.245132	-63.746490	-12.327209
322.948639	-39.946285	-37.914577	5.045722
323.400604	-55.842140	-62.255932	-39.637783
323.852509	-32.000175	-24.506298	-4.384701
324.304352	-45.410034	1.308342	-25.236172
324.756165	-23.061705	-19.541113	-10.837823
325.207916	-59.816746	-7.626159	-26.229246
325.659668	-69.754646	-32.948257	-13.320064
326.111328	-40.939739	-16.065556	-5.873789
326.562988	-27.034222	21.654299	16.459536
327.014557	-50.377415	-21.527220	-13.816632
327.466156	-41.933079	-53.313110	4.053160
327.917664	-40.443077	-51.822548	-34.174706
328.369110	-21.572182	-6.136891	-35.664547
328.820557	-38.456329	-29.472042	10.504788
329.271942	-28.524019	-3.158739	-9.845010
329.723297	-36.469788	-19.541113	13.978306
330.174561	-74.227020	-1.669720	-12.823499
330.625854	-23.061840	21.158159	-44.107975
331.077026	-42.429756	-34.934681	-20.270655
331.528229	-53.854870	-33.941460	-59.508137
331.979370	-58.822968	-38.907867	3.060580
332.430450	-63.791622	-21.030584	6.534669
332.881500	-32.000042	-25.002829	-6.370160
333.332489	-37.463051	12.226525	25.886501
333.783478	-75.717880	-22.023722	-21.263779
334.234406	-64.785622	-28.975475	17.451889
334.685303	-55.842140	12.722740	-10.341549
335.136078	-55.345352	-8.619069	19.436684
335.586914	-47.397018	6.271488	-9.348609
336.037659	-50.377548	-6.137026	30.847588
336.488342	-68.263672	5.278811	-4.881060
336.939026	-44.416637	-4.647797	-9.348475
337.389648	-41.933079	8.256522	-2.895516
337.840240	-59.816879	-10.108399	-2.399174
338.290771	-42.926437	9.249015	0.578924
338.741272	-47.893738	8.256522	20.924999
339.191681	-30.013718	-9.611861	-23.746460
339.642120	-2.707480	-27.982222	29.359251
340.092468	-29.517147	6.767753	13.482237
340.542816	-38.952980	15.203887	10.008554
340.993103	-44.913334	30.088314	-10.341549
341.443329	-47.396881	49.928505	21.917414
341.893555	-23.558357	14.211360	23.406071
342.343689	-46.900162	10.241624	39.776283
342.793793	-26.041000	31.080576	21.917414
343.243866	-19.586075	18.677399	25.886501
343.693878	-53.358101	13.715293	45.232021
344.143890	-28.523884	60.341808	22.413546
344.593842	-49.880672	51.912216	12.986028
345.043732	-48.887196	66.787331	28.367096
345.493591	2.752302	51.912216	78.947975
345.943359	-34.979790	88.102386	37.792305
346.393158	-49.880672	103.959442	10.008554
346.842896	-28.027327	81.659019	51.679176
347.292542	-4.692883	60.342079	52.175060
347.742218	-45.906876	41.993145	72.503761
348.191803	3.248462	112.381859	60.604885
348.641357	-34.979790	90.580261	61.100697
349.090881	-43.920078	92.562355	109.672195
349.540314	-35.973030	123.775200	121.066048
349.989777	-57.332535	153.981735	136.914597
350.439148	-51.867668	206.435974	211.149963
350.888489	-9.656952	356.131622	269.979614
351.337799	-33.489964	692.287476	555.439575
351.787048	-53.358101	1213.660522	924.362183
352.236267	-41.933079	1689.267578	1242.178467
352.685425	-37.959553	1958.116455	1505.263672
353.134552	-58.823105	1799.138184	1489.727661
353.583649	-29.517147	1521.995605	1235.845581
354.032684	-29.020447	1067.805664	931.211731
354.481659	-33.489964	783.538330	658.174438
354.930634	-28.524019	623.031128	470.772003
355.379517	-18.593115	500.058777	421.002960
355.828430	-36.469654	430.106964	343.068756
356.277222	-28.523884	377.346649	343.068756
356.726013	-59.816746	375.866974	332.209442
357.174774	-22.565193	345.274811	285.790070
357.623444	-5.685609	346.755371	276.403290
358.072113	-26.537676	369.453552	274.426880
358.520721	-36.966419	327.504852	276.897339
358.969299	-11.642724	362.546234	270.473846
359.417786	-45.906876	348.729370	270.967957
359.866302	-18.096642	357.612030	271.462067
360.314697	-46.900162	368.960327	298.633118
360.763123	-26.537811	364.519867	304.559631
361.211456	-25.544462	377.346649	258.119324
361.659760	-41.436272	417.290924	307.028778
362.108032	-29.517014	412.853821	290.730011
362.556244	-71.742325	402.006531	322.335907
363.004456	-31.503454	445.384613	362.314636
363.452576	-22.565193	524.671692	453.529755
363.900696	-37.463051	803.146301	682.237671
364.348663	-39.946285	1480.243530	1248.997925
364.796722	-20.082697	2586.794922	2127.169189
365.244690	-32.000042	3577.682129	2852.213135
365.692596	-26.041000	3820.808838	3121.406982
366.140472	-15.117885	3230.243652	2870.851074
366.588287	-50.377277	2312.208984	2113.677490
367.036102	-24.054741	1614.644653	1464.474121
367.483826	-47.893604	998.923096	974.251160
367.931549	-35.476543	751.663452	665.050293
368.379181	-30.013718	601.404724	528.377747
368.826843	-45.906742	591.571960	429.382599
369.274384	-47.396881	532.053711	448.109863
369.721924	-49.383930	518.765381	390.432617
370.169403	-35.476406	539.927002	394.871155
370.616821	-1.218337	510.889465	388.952972
371.064270	-37.959553	525.163818	408.678009
371.511566	-25.544462	546.323364	394.377899
371.958923	-70.748344	524.671509	391.911987
372.406158	-61.307240	507.443451	446.631683
372.853424	-68.760704	552.719055	421.989105
373.300568	-46.900162	530.085205	428.889709
373.747711	-55.842007	591.080566	440.225220
374.194794	-33.986568	609.269531	441.211060
374.641846	-64.288490	598.946655	482.100159
375.088898	-36.966419	640.229309	535.759338
375.535828	-48.887196	662.825256	559.867126
375.982758	-50.874161	781.577271	581.506958
376.429596	-17.600307	927.038635	786.249756
376.876465	-21.572317	1371.388062	1091.010986
377.323242	-11.642589	2189.043701	1664.334961
377.769989	0.270768	3209.292480	2369.658691
378.216675	-48.390465	4045.901611	2974.970215
378.663330	-61.804085	4304.934570	3180.016113
379.109985	-28.027189	4027.949219	3059.901611
379.556519	-53.854870	3539.715820	2672.328125
380.003052	-58.326286	2977.581055	2311.502686
380.449524	-57.332672	2487.041748	1961.752075
380.895996	-30.013582	2015.062744	1531.474365
381.342377	-44.416637	1505.976807	1191.011230
381.788727	-28.523884	1223.406616	988.428650
382.235046	-42.926437	985.236572	765.656189
382.681274	-31.006737	861.937012	668.979248
383.127533	-43.423256	851.651978	613.953918
383.573669	-53.358101	792.362793	606.580933
384.019836	-44.913200	752.153809	573.146851
384.465912	-30.510292	736.456543	585.440979
384.911957	-61.804218	742.833984	527.393372
385.357971	-39.946419	735.475098	572.163391
385.803925	-52.364429	703.086853	533.298767
386.249847	-31.006872	704.068481	589.374390
386.695679	-21.572182	704.559448	528.377747
387.141541	-62.797909	674.120544	539.203674
387.587311	-74.227020	739.890442	537.235413
388.033051	-38.953114	778.635376	544.616028
388.478729	-40.939739	780.106323	606.580933
388.924408	-29.517147	734.984619	556.915466
389.369995	-36.469788	773.241943	608.055908
389.815552	-49.880672	748.229675	588.882446
390.261078	-27.034222	786.479736	607.072571
390.706543	-45.410034	808.047546	613.462341
391.152008	-39.449631	799.715332	596.749207
391.597351	-36.966419	802.656067	636.067871
392.042725	11.685367	816.868347	667.505615
392.487976	13.174012	826.178589	634.593750
392.933289	-1.218337	796.283875	616.411194
393.378479	-40.442944	816.378723	602.156799
393.823639	-25.048065	793.832947	616.411438
394.268768	-41.933079	852.631531	608.055603
394.713837	-9.656952	882.991394	626.240234
395.158905	-20.082697	871.730225	638.524536
395.603851	-58.326286	893.271484	666.032471
396.048798	-19.089727	908.933472	653.262451
396.493683	1.759701	878.095459	696.966064
396.938568	-40.939739	912.848633	642.454834
397.383392	-43.919945	916.763184	672.908020
397.828156	-48.390465	884.460144	669.470459
398.272888	-42.429756	920.188416	692.056885
398.717560	-38.953114	951.497253	727.885193
399.162201	-52.861462	967.635132	720.524658
399.606781	-48.887196	946.606079	736.226135
400.051361	-12.139009	939.757996	733.282227
400.495819	-58.822968	975.947388	716.108093
400.940308	-24.551401	961.278503	728.866516
401.384705	-4.692883	999.411926	714.145142
401.829102	-10.649628	1004.788025	740.641174
402.273438	-17.600307	1067.317505	758.790283
402.717682	-13.131995	1038.013672	775.463318
403.161926	-41.436409	1041.432983	879.334351
403.606110	-37.959553	1279.420532	1130.539307
404.050293	-75.221062	2020.851563	1674.024048
404.494385	-28.523884	3187.861084	2475.779541
404.938446	-1.218337	4014.246338	3005.038818
405.382477	-21.075819	3901.727295	3026.510742
405.826447	-44.416637	3029.120117	2623.948975
406.270386	-41.933079	2035.322754	1877.230591
406.714233	-41.436409	1519.568970	1293.310669
407.158081	-37.463051	1323.715210	1046.576660
407.601868	-64.288490	1356.311279	1076.365356
408.045624	-38.456467	1440.898438	1063.181763
408.489319	-23.061840	1435.553589	1131.027466
408.933014	-44.913334	1519.083740	1279.191772
409.376617	-51.867805	1979.355591	1623.627686
409.820190	-37.959553	3252.142334	2529.992188
410.263702	-83.670212	5235.151855	3786.023682
410.707184	-58.823238	6804.421875	4741.198242
411.150635	-49.880672	6973.674805	4924.134766
411.594025	-50.874161	6000.240234	4591.347168
412.037384	-46.403450	4754.092773	3777.026123
412.480682	-46.900299	3790.508545	3037.483643
412.923981	-37.959553	3222.149658	2471.460205
413.367126	-64.288490	2778.802979	2102.111816
413.810333	-59.816879	2247.761230	1729.714355
414.253479	-48.390465	1834.922852	1422.204956
414.696533	-46.900162	1476.358398	1213.919189
415.139587	-52.861462	1346.096191	1007.979492
415.582581	-42.429756	1228.279053	935.125610
416.025543	-39.449631	1155.158447	885.209290
416.468414	-39.449631	1136.623047	865.624451
416.911285	-75.220924	1156.621704	858.768433
417.354065	-81.184990	1164.424072	887.656738
417.796875	-21.075684	1126.377686	839.176208
418.239594	-56.338932	1121.498657	855.829895
418.682281	-71.742325	1138.086548	860.237732
419.124908	-32.496635	1111.251099	861.706726
419.567505	-67.269882	1116.619019	872.969482
420.010071	-32.496635	1186.852905	890.594055
420.452545	-66.773125	1145.403687	869.052185
420.895020	-49.383930	1219.020874	865.134644
421.337372	-33.489964	1264.325439	913.107971
421.779785	-25.048065	1237.048584	944.908936
422.222107	-39.449631	1265.299316	966.427856
422.664368	-58.326286	1302.301270	979.140137
423.106628	-40.443077	1296.946899	1006.513306
423.548798	-29.517147	1325.661743	1000.648743
423.990967	-41.436409	1342.690796	960.559448
424.433044	-67.269882	1351.447021	1009.934204
424.875092	-12.635568	1337.825684	1042.180542
425.317078	-19.089863	1374.792480	1018.241516
425.759064	-35.973030	1379.168823	1065.134766
426.200989	-23.061975	1420.003540	1069.041260
426.642853	-17.600307	1414.657104	1067.576538
427.084686	-69.754517	1427.778931	1091.499268
427.526459	-35.476406	1440.412476	1064.158447
427.968201	-26.041000	1483.643066	1077.341431
428.409912	-35.476406	1450.615112	1106.630005
428.851563	-28.027327	1514.229248	1153.953735
429.293121	-29.020447	1544.804199	1144.686646
429.734711	-35.476406	1552.082275	1167.608887
430.176239	-53.358101	1595.250732	1250.946411
430.617706	-24.551401	1589.916626	1214.406250
431.059113	-16.110651	1644.211548	1181.748413
431.500488	-0.722145	1644.695923	1235.845581
431.941833	-52.364429	1730.910156	1294.771118
432.383087	-39.449631	1691.688965	1279.678833
432.824341	-14.124865	1679.096069	1339.056519
433.265533	-64.785484	1821.384155	1445.043091
433.706726	-54.351646	1970.667236	1490.698486
434.147827	-41.436409	2110.530762	1631.867798
434.588867	-65.779099	2516.307373	1994.571533
435.029877	-33.489830	3574.360352	2976.402344
435.470825	-47.397018	5886.389648	4767.483887
435.911804	-52.861328	8229.438477	6422.899414
436.352661	-41.436409	9573.029297	7263.479980
436.793518	-23.061840	8695.592773	6991.891602
437.234283	-38.953114	6784.114258	6136.966797
437.675049	-19.586346	5121.974609	4682.972656
438.115723	-40.443077	4200.263184	3567.494629
438.556396	-63.294765	3651.201172	2952.055176
438.997040	-32.496635	3367.745850	2715.895752
439.437561	-54.848564	3299.731445	2598.551758
439.878113	-61.307106	3326.847656	2623.469971
440.318573	-76.711945	3371.073242	2593.279297
440.759033	-45.906876	3458.517578	2610.532471
441.199341	-52.861462	3646.458984	2801.056885
441.639709	-49.383930	3678.698242	2781.448242
442.079956	-53.855007	3803.291992	2807.752197
442.520264	-44.913471	3797.136475	2836.916992
442.960510	-54.351784	3910.240479	2926.745850
443.400604	-86.652473	3883.750000	2932.476318
443.840759	-63.294765	3914.970459	2889.008301
444.280762	-16.607244	3835.956543	2950.622070
444.720825	-21.572317	3726.563721	2780.970215
445.160767	-26.041134	3477.042725	2646.943848
445.600739	-26.537540	3174.999023	2419.613037
446.040558	-22.068686	2858.172607	2185.928223
446.480438	-44.913334	2512.469971	1934.231201
446.920258	-66.772987	2204.930176	1731.166748
447.359955	-36.469654	1934.458252	1489.241821
447.799713	-31.006737	1734.298462	1397.416138
448.239319	-58.822968	1559.844604	1202.222290
448.678955	-29.020447	1472.473267	1114.437866
449.118500	-2.707480	1424.377319	1102.725708
449.558014	-31.006872	1450.615112	1105.165771
449.997498	-39.946148	1862.959229	1525.650269
450.436951	-84.167381	3587.645264	2872.763672
450.876343	-60.810539	7503.505371	5567.287598
451.315674	-58.326286	12566.251953	8683.096680
451.754974	-45.906742	15566.079102	10692.332031
452.194183	-21.075819	15916.394531	11488.953125
452.633392	-54.351917	13549.932617	10565.757813
453.072510	-7.174866	10648.567383	8862.222656
453.511688	-43.423256	8499.848633	6997.420898
453.950684	-53.358101	6971.370605	5679.574219
454.389740	-25.544462	5845.936035	4515.171387
454.828735	-40.443077	4656.417969	3648.607178
455.267639	-42.429756	3568.191895	2856.036621
455.706543	-68.263535	2567.619873	2126.687012
456.145325	-53.854870	1884.705322	1601.326538
456.584137	-33.986568	1394.727173	1182.236328
457.022858	-61.307240	1063.899292	904.788330
457.461578	-36.469788	901.102905	709.237183
457.900208	-27.530636	774.712708	620.834595
458.338867	-35.973030	752.644409	553.963867
458.777405	-42.429756	668.227722	529.361694
459.215912	-37.959553	639.737610	491.456787
459.654388	-57.829475	657.422241	495.395966
460.092773	-43.423119	609.761169	420.017242
460.531189	-17.103842	567.967773	395.857422
460.969513	-19.586075	574.361572	425.439484
461.407806	-66.276108	574.853210	403.254211
461.846008	-36.966419	510.397339	402.268036
462.284241	-46.403584	497.596954	384.514038
462.722351	-7.671247	459.180603	370.701965
463.160461	-32.496635	466.570099	349.484680
463.598541	-52.364563	483.316528	358.860565
464.036530	-64.785484	475.436432	356.393433
464.474518	-21.572182	454.253845	334.184174
464.912384	-39.946285	457.209991	361.327728
465.350281	-15.117749	457.209991	379.581451
465.788086	-22.068686	459.180603	334.184021
466.225891	-25.047794	478.391479	374.648560
466.663605	-46.403450	514.827454	391.912262
467.101318	-53.358101	532.053711	389.446289
467.539001	-59.319923	523.687256	404.733521
467.976563	-47.396881	533.037903	418.045288
468.414124	-31.006737	536.974609	434.311249
468.851593	-57.829475	507.935760	411.143250
469.289063	-33.489830	539.434692	382.541016
469.726440	-47.397018	552.718811	398.323273
470.163849	-30.013718	540.418884	422.481873
470.601135	-29.517014	516.304260	416.566254
471.038422	-51.867668	541.403198	433.818665
471.475677	-48.887466	581.246277	449.588165
471.912811	-63.791622	564.524902	433.325562
472.350006	-30.013718	523.195068	411.636261
472.787048	-62.300926	534.514282	396.843811
473.224121	-35.973030	531.069580	396.350555
473.661072	-32.000175	523.687256	417.552216
474.098053	-29.020447	574.361572	403.747375
474.534943	-58.823105	522.210632	452.051697
474.971802	-70.748344	596.980103	420.017242
475.408630	-28.524019	592.063721	417.552338
475.845367	-50.377415	606.811768	472.742340
476.282104	-55.345352	613.693176	443.674896
476.718750	-24.054741	582.721558	460.427277
477.155426	-71.742325	583.213013	418.538239
477.591949	-46.403450	581.246277	460.427277
478.028503	-45.906876	587.146973	480.622894
478.464966	-40.939739	585.671814	444.167664
478.901428	-49.384068	591.080322	450.573456
479.337860	-49.880672	594.030151	490.964386
479.774170	-29.020447	593.538635	450.573456
480.210510	-47.893738	630.893494	452.051575
480.646698	-48.887329	621.065369	480.130402
481.082947	-44.913200	595.013672	501.304535
481.519073	-80.190979	643.668091	463.875610
481.955200	-27.530771	613.201843	467.816467
482.391266	-2.707480	647.598328	505.735413
482.827301	-14.124865	658.405151	511.643036
483.263306	-40.939739	693.269226	514.104065
483.699188	-70.251427	650.545959	525.916931
484.135101	-33.986568	690.323547	527.393372
484.570923	-23.558357	710.449524	518.534058
485.006744	-48.887196	714.375549	539.203674
485.442413	-61.307240	727.624878	536.743347
485.878174	-44.913334	764.905457	568.228455
486.313782	-31.503590	751.663452	603.631653
486.749390	-38.456329	766.867004	539.695862
487.184998	-64.288490	783.048218	582.490479
487.620453	-48.887329	728.606140	534.283020
488.055939	-34.483311	809.027405	590.357544
488.491333	-43.919945	770.299683	555.439575
488.926727	-58.326286	769.319153	575.114075
489.362030	-55.842140	761.472595	569.212341
489.797302	-28.027327	783.538330	583.965759
490.232513	-59.319923	789.421326	606.581177
490.667755	-59.319786	815.888306	601.665222
491.102905	-62.300926	868.792419	671.434753
491.537964	-35.476406	904.528931	695.002258
491.973022	-41.436272	956.387756	778.895508
492.407990	-70.748344	1009.186646	729.847778
492.842957	-34.483177	885.928894	673.890137
493.277832	-43.919807	868.302856	683.219666
493.712738	-40.443214	834.997314	650.806335
494.147491	-37.959553	818.828613	553.963867
494.582275	11.685232	851.162109	606.089355
495.017029	-49.880672	839.896301	580.523193
495.451660	-29.517014	832.057678	648.841125
495.886292	-19.089594	858.508667	670.943787
496.320831	-43.423256	905.018433	690.583984
496.755402	-13.628428	917.252380	742.112915
497.189850	-44.416637	973.013916	741.131836
497.624298	-38.952980	1058.039185	836.237061
498.058655	-58.326286	1135.647095	863.665466
498.493042	-43.919945	1217.071777	926.808594
498.927368	-33.986568	1290.131592	940.017578
499.361572	-22.068686	1214.148193	963.493713
499.795807	-37.463051	1108.810913	878.844666
500.229919	-67.269882	1030.197266	864.155518
500.664063	-55.345352	978.392029	792.132568
501.098083	-7.174866	952.964539	718.070984
501.532104	-44.416637	896.208313	717.089233
501.966064	-48.887329	843.815002	674.381042
502.399994	-38.952980	841.855652	634.593445
502.833893	-10.153490	819.808594	679.291504
503.267700	-24.551266	837.936584	647.858704
503.701477	-49.383930	880.543457	674.872192
504.135193	-60.313576	865.854431	641.963684
504.568909	-52.364563	863.895447	630.171204
505.002502	-49.384068	837.446594	633.119629
505.436127	-46.403450	846.264221	604.123047
505.869629	-48.887196	814.908508	582.490234
506.303162	-48.390465	836.956848	620.834595
506.736603	-51.371048	788.930969	655.226929
507.169983	-59.816608	834.507568	637.050476
507.603363	-56.338932	877.605957	648.350342
508.036621	-46.403450	833.037781	659.647766
508.469940	-9.656952	863.895691	671.434509
508.903107	-46.900299	839.896301	673.398926
509.336304	-42.926437	889.844971	653.753479
509.769379	-17.600172	897.187500	642.454834
510.202484	-37.959690	933.887939	681.255493
510.635529	-74.723969	916.762939	663.577087
511.068481	-39.449631	938.779724	698.438538
511.501434	-7.174866	924.592285	719.052429
511.934265	-63.791622	988.658264	701.874634
512.367126	-27.034222	956.876953	692.056885
512.799927	-18.593115	973.992065	755.356812
513.232605	-61.307240	878.585144	729.357300
513.665344	-38.953114	964.212524	741.622253
514.097961	-28.027327	938.779724	791.642212
514.530579	-52.364700	974.480530	767.127197
514.963135	-34.483177	1004.299194	774.972900
515.395691	-29.020447	1053.155273	815.658142
515.828064	-57.829475	1053.643799	825.458374
516.260498	-22.068821	1057.550659	876.886353
516.692871	-31.503590	1039.479126	838.196533
517.125183	-61.307240	1081.476929	842.605286
517.557373	-19.586075	1109.299316	830.357727
517.989624	-51.371048	1109.299316	794.583313
518.421753	-26.041000	1116.131226	866.114258
518.853943	-22.565329	1164.424072	842.115295
519.286072	-51.371048	1182.952393	876.886597
519.718018	-56.835735	1219.995361	952.734863
520.150024	-32.000042	1255.558960	872.479736
520.581909	-48.390465	1270.169189	976.695862
521.013855	-35.973030	1252.149536	985.006531
521.445679	-37.959553	1367.497437	982.073608
521.877502	-63.791622	1378.196045	1045.599731
522.309204	-31.006737	1362.147949	1052.925903
522.740906	-43.919945	1374.306030	1067.576538
523.172546	-35.476543	1316.415771	1041.692017
523.604187	-52.861328	1323.228394	1018.241516
524.035767	-24.054876	1227.791748	967.405457
524.467224	-36.469654	1193.190063	936.593018
524.898682	-37.959553	1130.280640	898.915588
525.330078	-74.227020	1098.561768	854.360779
525.761475	-38.953114	1031.662720	766.146484
526.192749	-59.319923	1015.539001	762.713562
526.624023	-24.551401	993.546265	769.088867
527.055237	-41.933079	956.876953	740.641174
527.486389	-55.842140	932.909302	722.487183
527.917542	-54.351646	933.398621	717.580383
528.348572	-43.423119	969.591248	726.413147
528.779663	-60.810406	955.409729	756.828308
529.210571	-87.149658	996.479187	777.424255
529.641541	-53.855141	975.458374	765.656189
530.072388	-53.854870	990.613770	820.558716
530.503235	-14.124999	1035.571289	814.188477
530.934082	-50.874161	1100.026123	822.028809
531.364746	-60.313576	1153.695190	893.531189
531.795532	-8.167633	1194.164917	925.340698
532.226135	-27.034222	1288.671021	1004.069946
532.656738	-61.307240	1456.930420	1134.442505
533.087280	-7.174866	1566.150879	1285.034424
533.517822	-25.048065	2075.345459	1643.499512
533.948242	-29.517147	3705.714111	3057.040527
534.378662	-32.496635	10877.281250	8547.913086
534.809082	-39.946285	26437.832031	19232.578125
535.239319	-14.124865	42666.574219	30792.445313
535.669617	-21.572317	51572.011719	38200.007813
536.099792	-53.358101	51967.824219	39357.808594
536.529968	-20.082697	45686.019531	37214.457031
536.960083	-47.893738	38117.578125	33351.843750
537.390137	-23.558357	31136.646484	28273.705078
537.820190	-53.854870	26119.320313	23298.490234
538.250183	-69.257607	22869.740234	19466.593750
538.680115	-67.269882	19986.201172	16468.984375
539.109985	-27.530771	17090.609375	14013.043945
539.539795	-24.054741	14217.277344	11864.450195
539.969543	-43.423119	11797.379883	9973.229492
540.399292	-22.068686	9528.269531	8242.916992
540.828979	-26.537540	7510.390137	6548.743164
541.258606	-37.462917	5639.270508	4982.706055
541.688171	-39.946285	4243.652344	3862.709473
542.117737	-32.000042	3183.573975	2895.697510
542.547302	-26.041134	2521.104492	2259.562988
542.976685	-25.048065	2116.795166	1845.814575
543.406128	-51.371048	1820.417114	1544.576294
543.835388	-16.110786	1657.295044	1346.354004
544.264771	-23.061840	1619.008057	1310.346802
544.693970	-28.027327	1715.417603	1379.426514
545.123230	-48.887196	2932.223389	2675.200928
545.552307	-49.384068	10162.656250	8485.511719
545.981506	-54.351646	19732.371094	15726.378906
546.410583	-6.182114	26051.476563	20241.226563
546.839539	-64.785484	25992.945313	20138.335938
547.268555	-57.829475	19759.062500	17177.015625
547.697449	-76.214981	13627.213867	14681.833008
548.126282	-33.489964	9280.707031	11455.465820
548.555054	-47.893604	6734.256348	7907.028320
548.983887	-4.196527	4849.808105	5198.464844
549.412598	-28.027327	3562.497314	3604.975586
549.841309	-22.565193	2620.820068	2588.007568
550.269958	-33.986568	2041.110107	1969.957764
550.698486	10.692781	1727.036987	1613.447510
551.127075	-24.551401	1491.411987	1315.700439
551.555481	-66.773125	1348.041870	1201.734741
551.983948	-40.443077	1201.476440	1062.204834
552.412292	-48.390465	1231.202026	985.495728
552.840698	-64.785484	1181.002563	963.004822
553.268860	-15.117749	1216.584595	1002.603638
553.697205	-51.867805	1164.911987	979.628906
554.125366	-88.143784	1120.034790	927.787354
554.553467	-87.646858	1095.145386	880.803223
554.981628	-11.146309	1026.288574	818.598206
555.409607	-62.301064	997.456665	813.208130
555.837646	-72.239258	950.029846	797.034241
556.265564	-55.842140	945.138611	747.999512
556.693481	-57.829342	916.273987	726.412842
557.121338	-60.313576	900.613403	716.598633
557.549133	-74.723969	881.522583	716.598938
557.976929	-56.338932	862.916077	701.874634
558.404602	-42.429756	922.634949	674.872192
558.832275	-32.000175	888.865662	701.874634
559.259888	-79.196991	864.875122	686.656494
559.687439	-70.251427	894.250671	652.279785
560.114929	-45.906742	891.313599	690.584229
560.542419	-19.586210	841.365662	670.452637
560.969788	-44.913200	870.751160	676.836365
561.397156	-42.926437	868.302856	653.753479
561.824524	-50.377415	860.957336	674.381042
562.251770	-37.959553	850.672485	635.084961
562.679016	-30.013718	862.916077	639.507385
563.106140	-49.383930	847.243774	649.823608
563.533264	-23.061840	859.977905	705.310547
563.960327	-60.810406	853.611267	671.925659
564.387329	-72.736053	858.998230	643.928772
564.814331	-17.600037	832.547729	659.647766
565.241272	-27.530771	823.728699	642.945984
565.668213	-36.469788	837.446838	605.106445
566.094971	-10.153220	841.855652	644.911255
566.521790	-24.551401	863.405884	680.273499
566.948425	-77.208923	938.290405	723.959656
567.375183	-36.469654	1051.690308	798.504883
567.801819	-27.530771	1195.627319	973.762146
568.228394	-36.966419	1645.180908	1298.665283
568.654846	-31.503454	2284.800537	1686.618530
569.081421	-47.396881	2704.153320	1944.371704
569.507874	-46.403450	2699.844727	2024.484131
569.934265	-9.160554	2333.841553	1813.903564
570.360596	-55.842140	1865.858887	1671.117920
570.786865	-50.377548	1540.437134	1407.624146
571.213074	-27.530771	1287.210449	1173.460327
571.639282	-48.887196	1191.727539	1003.581116
572.065430	-11.642589	1094.168823	897.447144
572.491516	-41.932945	999.900574	789.191101
572.917603	-40.442944	980.836548	793.112915
573.343567	-65.779099	959.322266	799.484863
573.769531	-43.919807	947.095093	789.681152
574.195435	-68.263802	1023.357239	795.073364
574.621277	-53.855007	1079.035767	903.809570
575.047119	-34.483040	1192.215454	965.938782
575.472839	-63.294903	1535.584473	1221.228760
575.898560	-53.854870	2240.543701	1899.938843
576.324158	-61.307240	4067.156494	3375.604980
576.749817	-65.282356	6211.859863	5163.858887
577.175293	-44.416637	7724.087402	6329.361328
577.600830	-41.932945	7746.997070	6532.556641
578.026306	5.730141	7081.933594	6301.100098
578.451721	-16.607244	7071.342285	6780.666504
578.877136	-58.823105	7852.323242	7442.230469
579.302429	-32.993229	8249.521484	7640.453125
579.727661	-43.423256	7649.380371	6926.901367
580.152832	-55.345352	6091.707520	5758.718750
580.578064	-16.110651	4570.883301	4754.811035
581.003113	-58.823105	3510.282715	3865.548340
581.428223	-25.047930	2690.748291	2949.667969
581.853271	-14.124865	2149.073242	2134.877441
582.278198	-21.075684	1704.280640	1720.515991
582.703125	-35.476406	1460.330688	1314.727173
583.127930	-27.034086	1278.933472	1164.682861
583.552795	-56.835735	1137.110962	1004.558472
583.977539	-13.628293	1056.573975	936.593018
584.402283	-44.913200	1084.405884	901.851929
584.826965	-16.607244	1088.311523	862.686096
585.251587	-48.390331	1147.354614	872.969482
585.676208	-29.020447	1137.110718	893.531189
586.100647	-18.593115	1262.377197	968.383667
586.525208	-30.510292	1351.933594	1073.924072
586.949524	-34.483040	1678.127075	1272.862061
587.373962	-59.816879	2390.541748	1753.431274
587.798218	-54.848564	4589.687500	3282.854736
588.222534	-53.358101	10013.105469	6858.648926
588.646729	-80.191116	17928.929688	12081.264648
589.070984	-64.785484	27118.474609	17813.736328
589.495117	-48.390465	34767.898438	22761.703125
589.919128	-22.565329	38883.226563	26552.562500
590.343201	-42.926437	38697.027344	27580.425781
590.767151	-43.919945	35220.324219	26474.455078
591.191101	-48.390331	30041.292969	23482.716797
591.614990	-31.006872	24769.505859	20242.976563
592.038818	-60.313576	20099.142578	17004.656250
592.462524	-50.377415	16604.021484	14083.126953
592.886292	-59.816879	13677.987305	11463.056641
593.310059	-40.442944	11503.448242	9500.017578
593.733582	-35.476543	9689.158203	7986.622070
594.157227	-13.628293	8453.830078	6819.433105
594.580750	-65.282356	7497.998047	5923.358887
595.004272	-39.946285	6746.260742	5284.002441
595.427673	-39.449631	6037.856934	4727.113770
595.851074	0.766948	5586.616699	4332.985840
596.274353	-61.307377	5124.782227	4065.518066
596.697632	-20.082697	4707.144531	3661.883057
597.120911	-40.442944	4373.247559	3415.531982
597.544067	-44.416637	4083.686035	3213.830811
597.967224	-38.456329	3850.627686	2986.426270
598.390320	11.685232	3609.941895	2854.124756
598.813354	-75.718018	3509.333496	2665.623779
599.236328	-16.607244	3266.898193	2492.094482
599.659241	-16.110786	3107.330811	2429.697266
600.082153	-16.110786	2942.251709	2311.021973
600.505005	-39.449631	2829.493164	2213.368164
600.927795	-32.993229	2688.833496	2066.441162
601.350525	-26.041134	2576.248535	2002.774292
601.773254	-21.572182	2510.551025	1947.751221
602.195862	-50.874294	2375.649658	1825.992676
602.618408	-64.785484	2303.554688	1744.719971
603.040955	-43.919945	2230.919922	1726.325928
603.463440	-51.371048	2126.431641	1638.168213
603.885925	-24.054741	2028.087524	1594.053467
604.308350	-46.403450	1954.737305	1552.339478
604.730652	-38.456196	1933.975464	1446.500488
605.152893	-61.307240	1870.692017	1425.120972
605.575195	-40.443077	1815.581421	1379.426758
605.997375	-38.953114	1752.206909	1365.810181
606.419495	-51.867668	1661.655762	1296.718262
606.841553	-33.489830	1655.841187	1262.148682
607.263672	-41.933079	1638.880737	1209.533081
607.685608	-40.939739	1584.582153	1187.111328
608.107605	-24.054741	1497.724243	1163.707642
608.529480	-33.489964	1475.872925	1121.757080
608.951294	-69.754517	1419.517334	1076.853638
609.373108	-28.523884	1419.517334	1054.879639
609.794800	-74.723969	1476.358398	1122.733154
610.216553	-30.510292	1513.258667	1144.686646
610.638123	-22.565329	1555.963623	1139.808838
611.059753	-67.270012	1514.229492	1149.076538
611.481262	-46.900162	1414.657349	1093.451416
611.902832	-43.423119	1331.014038	1072.947632
612.324219	-16.607244	1327.121338	998.693787
612.745605	-12.139143	1267.247437	990.384216
613.166931	-31.006872	1223.893921	964.471680
613.588196	-73.730064	1231.689697	894.509888
614.009460	-34.979790	1212.198486	898.425781
614.430664	-57.332672	1128.817261	863.665466
614.851807	-9.656952	1160.522949	882.761414
615.272827	-44.913200	1217.071777	928.276184
615.693909	-1.218472	1252.636230	978.651672
616.114929	-24.551401	1348.042236	996.738220
616.535889	-28.523884	1397.157837	1012.377686
616.956787	-38.952980	1314.469238	1009.934204
617.377563	-33.489964	1193.677856	948.333008
617.798340	-33.986568	1104.907104	945.398193
618.219055	-28.027327	1104.907104	841.625610
618.639832	-63.791622	1019.448242	823.988403
619.060364	-44.416637	1017.005005	794.583313
619.481018	-31.006872	935.355408	755.847412
619.901611	-37.959553	994.524353	711.690918
620.322083	-46.403450	993.546265	741.132080
620.742493	-53.855007	916.273682	709.728088
621.162842	-38.456467	889.844971	716.108093
621.583191	-50.377548	929.484680	715.617188
622.003418	-46.900162	913.338074	676.836365
622.423706	-66.276245	894.739807	671.434753
622.843872	-32.000175	853.121643	626.240234
623.264038	-56.835869	848.713318	643.437622
623.684143	-64.785484	817.848572	667.505920
624.104126	-52.364429	788.930969	646.876221
624.524170	-20.082697	813.928162	636.067871
624.944031	-32.000042	809.517883	645.893738
625.364014	-47.396881	783.538025	598.715576
625.783752	-67.766907	744.305481	612.479614
626.203552	-11.146309	759.020630	584.457458
626.623230	-62.301064	777.164368	574.622314
627.042969	-42.926437	780.596741	566.753113
627.462585	-50.874294	739.400024	548.060181
627.882141	-55.842140	728.115662	550.520020
628.301697	-25.048065	702.595886	573.146851
628.721130	-45.410034	731.059448	567.245056
629.140625	-39.449631	676.084900	535.759338
629.559998	-29.020447	698.669067	532.806641
629.979309	-28.027327	695.232788	515.088379
630.398560	-66.276108	651.528381	547.076111
630.817810	-44.416637	683.450012	531.822449
631.237000	-51.371048	664.789978	502.289032
631.656067	-50.874294	659.878479	494.903748
632.075195	-33.986568	655.457642	520.010803
632.494202	-20.579187	674.120728	474.712738
632.913208	-34.979790	607.794861	507.704407
633.332092	-13.628428	660.369690	489.979584
633.750977	-37.959553	633.350342	517.549683
634.169739	-19.089727	618.116760	459.441742
634.588562	-17.600037	630.893494	475.697754
635.007263	-38.952843	634.333008	459.441986
635.425964	-34.979790	651.036987	489.487305
635.844543	-34.979790	609.269531	465.353546
636.263123	-51.371048	614.676147	463.875732
636.681641	-58.326286	642.685547	449.588165
637.100037	-30.510292	601.404846	442.196472
637.518494	-50.377548	600.421387	450.080750
637.936829	-53.855007	558.622192	428.889709
638.355164	-30.510292	578.787476	416.073273
638.773438	-48.390465	519.749634	442.196472
639.191650	-61.804218	551.243164	426.425415
639.609863	-47.893738	523.194946	430.861298
640.027893	-49.383930	556.162537	408.678009
640.445984	-47.396881	560.589844	422.481873
640.863953	-32.000042	559.606079	417.059235
641.281921	-26.537540	520.734009	420.017242
641.699829	-72.239258	556.162537	431.354309
642.117676	-64.785484	542.879089	451.066162
642.535461	-38.456196	522.210632	406.705872
642.953247	-28.523884	549.767151	431.354156
643.370972	-24.551537	533.037903	432.340149
643.788635	-28.027327	537.466614	399.802582
644.206177	-56.835735	563.049194	386.486877
644.623718	-34.483177	550.751160	392.898590
645.041260	-53.358101	553.210754	405.719513
645.458618	-51.867805	488.241211	407.691803
645.876099	-67.766769	547.799438	393.391602
646.293396	-21.075684	476.914124	406.212799
646.710693	-22.068686	522.702942	402.268036
647.127991	-32.993229	539.927002	421.002960
647.545166	-32.993229	494.150116	386.486877
647.962341	14.166423	498.089294	417.552338
648.379333	-51.867805	523.687500	391.911987
648.796448	-32.993229	504.489777	423.960663
649.213379	-36.966419	520.734009	416.073273
649.630310	-27.034222	511.381836	414.594208
650.047180	-11.642589	483.809113	396.350555
650.463989	-56.835869	510.889465	390.925812
650.880859	-38.952980	479.376465	395.364288
651.297546	-16.110786	467.555389	385.007141
651.714233	-21.572182	428.135437	344.549469
652.130859	-48.887062	511.381836	348.497711
652.547485	-66.772987	459.673248	369.715302
652.963928	-31.503454	479.376740	393.884735
653.380432	-43.422985	522.702820	359.353973
653.796814	-17.600172	505.474335	343.562164
654.213196	-29.020447	576.328491	425.932404
654.629578	-56.835735	697.687317	490.472015
655.045837	-29.517014	820.788574	676.836365
655.462036	-50.874294	937.801392	683.710510
655.878174	-35.476543	924.592041	701.383911
656.294312	-59.319923	824.708374	649.823914
656.710327	-30.510292	698.178345	623.291809
657.126404	-40.442944	683.941101	606.580933
657.542358	-40.442944	577.312134	538.219482
657.958252	-51.867668	542.387085	494.411377
658.374084	-17.600307	529.593079	445.646057
658.789917	-40.939739	496.119720	412.129272
659.205688	-8.664159	510.889465	399.802307
659.621338	-22.068686	491.195801	352.939026
660.037048	-58.326286	446.370087	403.747375
660.452637	-45.906876	428.135590	346.030182
660.868164	-47.893738	442.920807	350.965271
661.283691	-26.537676	439.471344	344.549469
661.699158	-25.544462	440.949585	341.094543
662.114502	-42.926437	442.428040	353.432617
662.529846	-25.047930	424.685059	329.247620
662.945129	-76.214981	404.964966	345.536407
663.360413	-41.436409	421.234497	334.184021
663.775635	-20.082697	370.440491	341.587982
664.190674	-33.986568	403.485901	316.411072
664.605835	-38.953114	431.585663	308.016418
665.020813	-33.986568	388.198242	339.120056
665.435791	-38.456329	447.848450	330.728668
665.850769	-41.436272	423.699371	315.423584
666.265625	-56.835735	420.741547	323.323425
666.680420	-26.537676	401.020111	349.978302
667.095215	-26.537540	383.265900	325.791840
667.509949	-30.510292	425.670868	329.247620
667.924622	-35.476406	476.421448	315.917053
668.339233	-32.993229	429.614227	324.804352
668.753784	-5.685879	449.326752	332.209686
669.168335	-19.586075	490.210846	342.081665
669.582825	-83.173187	542.387085	385.500610
669.997192	-50.874294	1157.109131	857.789063
670.411560	-53.854870	2545.084473	1660.943726
670.825867	-34.979790	3806.605957	2418.172852
671.240173	-50.874294	4300.221680	2801.535400
671.654358	-38.456329	3608.519043	2412.890625
672.068481	-49.383930	2653.875000	2048.117676
672.482605	-83.173187	1829.120605	1783.431519
672.896667	-59.816879	1331.987183	1453.787476
673.310669	-45.409901	1031.174316	1070.018066
673.724609	-41.933079	849.203186	760.261414
674.138489	-20.579187	710.449219	552.980103
674.552307	-20.082561	555.178894	475.205261
674.966064	-57.829475	471.003479	402.268036
675.379822	-39.946285	423.699127	341.588135
675.793579	-55.842140	407.430328	330.728668
676.207153	-37.463051	413.346802	335.171082
676.620789	-48.887196	414.332794	329.741394
677.034241	-63.791756	388.691559	297.151306
677.447754	-15.614063	385.732117	270.473846
677.861206	-39.946285	361.065918	311.473267
678.274597	-83.173187	361.066193	264.543976
678.687866	-40.939606	397.568390	293.199585
679.101135	-53.854870	361.066193	281.837891
679.514404	-5.189379	343.794098	300.608521
679.927551	-54.848564	349.716339	284.801941
680.340698	-61.307240	366.493225	264.543976
680.753723	-28.027327	340.338989	257.130890
681.166748	-40.443077	333.428497	258.613647
681.579712	-31.006872	345.274658	241.807907
681.992615	-26.537540	317.136597	226.975296
682.405457	-20.579054	333.428772	287.272003
682.818298	-44.913200	323.555176	258.119446
683.231018	-23.061705	309.729767	214.117401
683.643738	-25.544462	303.803619	248.233963
684.056335	-31.503454	346.755463	232.414215
684.468994	-22.565193	341.326385	277.391266
684.881531	-22.068821	372.906921	301.102386
685.293945	-25.544462	375.373657	272.450378
685.706482	-32.000175	368.960052	290.730011
686.118774	-46.403450	347.742493	251.694153
686.531128	-59.320057	343.300537	285.790070
686.943481	-50.377277	310.717499	241.807632
687.355713	-72.239258	308.248199	251.694153
687.767883	-54.351784	287.503876	231.919937
688.179932	-57.829342	313.186523	235.875137
688.592041	-86.652603	253.409042	202.741196
689.004089	-55.842274	274.164703	211.644547
689.416016	-4.196661	307.260590	203.235840
689.827881	-67.766632	285.033813	204.225128
690.239868	-51.867805	320.592957	233.403305
690.651611	-65.779099	347.742493	224.008347
691.063354	-36.966419	359.585846	249.222809
691.475098	-16.607244	354.157715	256.636688
691.886719	-67.766907	318.123932	272.944489
692.298340	-47.396881	296.889252	232.908768
692.709900	-59.816879	296.395203	251.694153
693.121460	-44.913200	267.246918	254.165543
693.532837	-63.791622	280.093536	227.964066
693.944214	-43.423256	264.776184	204.719910
694.355652	-30.510292	297.877045	223.513870
694.766846	-43.423256	278.611542	204.719772
695.178101	-38.456329	251.432022	187.899185
695.589294	-35.476406	279.105591	233.403168
696.000366	-13.628293	235.612961	203.235840
696.411438	-50.377415	233.635239	187.899185
696.822510	-37.463051	273.176666	200.762558
697.233459	-48.390465	247.477539	214.611969
697.644409	-53.854870	262.799408	191.362488
698.055298	-14.621305	279.599518	202.246674
698.466064	-48.390465	233.635239	171.569016
698.876831	-48.887196	258.351563	222.030258
699.287537	-43.919945	263.787872	214.612228
699.698181	-33.489830	217.811890	205.214539
700.108826	-38.456196	245.994766	197.794357
700.519348	-46.403450	253.409042	171.074112
700.929810	-39.449631	234.624176	199.278397
701.340271	-23.061840	242.534271	196.309982
701.750732	-39.449631	220.284500	176.517990
702.161011	-7.174866	263.293579	181.961365
702.571350	-39.946419	255.880356	183.445953
702.981567	-27.034222	217.317093	190.867874
703.391724	-61.804218	235.612961	190.867874
703.801880	-55.345352	225.229675	144.837433
704.211914	-25.544462	238.084854	170.084152
704.621948	-50.377415	241.545593	190.867874
705.031921	-50.377415	197.532013	204.225128
705.441895	-50.377415	254.891891	186.909760
705.851746	-33.986568	230.668747	152.758987
706.261536	-52.364429	232.151886	174.538635
706.671265	-16.110786	211.382401	153.749222
707.081055	-43.919945	192.089996	173.053848
707.490662	-63.294903	208.909302	162.164734
707.900330	-31.006737	238.579498	172.558685
708.309814	-41.436409	248.466110	174.538361
708.719299	-48.887196	228.196426	171.074112
709.128784	-41.933079	246.488953	151.768860
709.538147	-50.874432	211.382401	157.214600
709.947510	-56.338932	213.360687	185.919937
710.356750	-30.013582	213.855255	213.128403
710.766052	-59.816879	192.584473	131.962265
711.175171	-12.139009	218.306427	168.104462
711.584290	-58.326286	241.051254	201.751755
711.993347	-27.034222	202.973526	157.709610
712.402405	-12.139009	247.971970	146.322647
712.811401	-35.476406	210.392960	148.798279
713.220276	-10.649762	185.657532	170.084152
713.629150	-63.791622	208.414566	156.224548
714.037964	-53.358101	218.306427	152.758987
714.446777	-25.048065	208.909302	144.342178
714.855408	-41.933079	211.876846	146.817886
715.264099	-19.586210	225.724014	197.299530
715.672668	-41.436409	240.062439	154.739304
716.081177	-41.933212	171.801453	152.264053
716.489746	-39.449493	207.919952	190.867874
716.898132	-54.848427	218.306427	193.836548
717.306519	-11.642589	197.532013	160.679901
717.714844	-38.953114	205.446716	115.121712
718.123108	-31.503321	185.657669	181.961365
718.531372	-30.510292	211.382401	176.023117
718.939514	-45.409901	170.811523	134.438477
719.347595	-28.523884	193.079315	132.952850
719.755676	-74.227020	166.851974	127.504936
720.163696	-34.979790	169.326630	167.609390
720.571716	-24.054876	174.276062	135.429016
720.979614	-52.364563	178.729828	146.322784
721.387451	-90.132233	208.909302	102.240349
721.795227	-22.565193	184.667953	153.254028
722.202942	-20.082697	184.667953	147.312988
722.610718	-4.196527	182.688599	163.154816
723.018311	-43.920078	158.437119	175.528244
723.425903	-26.041000	204.457596	133.448059
723.833374	-24.054876	168.831711	127.504799
724.240906	-46.403450	182.688599	130.971939
724.648376	-58.326286	174.770935	139.390457
725.055725	-43.919945	169.821823	104.222191
725.463013	-43.919945	166.357040	156.719574
725.870300	-54.351917	166.357040	139.885757
726.277466	-73.232994	168.336914	162.164734
726.684631	-7.671247	163.882126	134.933807
727.091797	-38.456329	182.193909	130.476700
727.498779	-25.544462	187.636795	166.619522
727.905823	-45.410034	166.357040	122.056671
728.312805	-4.692883	140.118195	137.905090
728.719666	-6.678353	162.397079	156.224548
729.126526	-37.959553	182.688858	151.273788
729.533264	-36.966419	170.316605	155.729385
729.940063	-23.558357	182.688599	136.419403
730.346680	-15.117749	173.286148	116.112427
730.753357	-52.861462	127.737679	172.063782
731.159851	-51.371048	160.417267	166.124710
731.566406	-39.946419	164.872177	112.644707
731.972900	-48.390465	181.699097	148.303177
732.379272	-12.635432	171.801453	139.390457
732.785645	-24.551266	159.922134	152.263916
733.191895	-52.861462	141.108643	120.075142
733.598206	-11.642589	140.613480	121.066048
734.004333	-53.854870	162.892319	118.093819
734.410522	-46.900162	192.584610	148.303177
734.816528	-28.027327	142.594070	141.371231
735.222656	-22.565193	169.326630	103.726868
735.628662	-30.013718	193.079193	155.729507
736.034546	-25.048065	169.326630	99.267319
736.440430	-6.182114	160.417267	130.971802
736.846252	-27.530771	163.387161	120.570602
737.252014	-52.861462	134.671066	123.047279
737.657715	-68.263672	181.699097	101.249268
738.063354	-27.034222	159.922272	125.028435
738.468933	-33.489830	172.791260	123.542435
738.874512	-39.449631	152.991501	150.283646
739.280029	-68.263802	167.841995	126.019135
739.685486	-23.558357	175.265808	109.176788
740.090881	-34.979790	170.811523	102.240349
740.496216	-41.436409	158.437119	127.009666
740.901550	-49.880672	173.286148	152.264053
741.306702	-41.933079	169.326904	128.495453
741.711914	-39.946419	173.781174	130.476440
742.117004	-40.443077	168.831711	118.589157
742.522095	-41.933079	163.882385	134.438477
742.927124	-73.232994	157.446960	94.807716
743.332031	-69.754517	166.357040	145.332550
743.737000	-12.635432	126.747025	143.847061
744.141785	-33.986435	143.089340	139.885620
744.546631	-29.517147	157.941971	151.768860
744.951355	-27.530771	190.110870	146.322906
745.356079	-27.530771	161.407242	141.866501
745.760620	-31.503454	136.156662	131.467178
746.165283	-48.887329	152.496582	118.093819
746.569824	-37.959824	143.089340	138.895294
746.974243	-30.510292	164.377075	123.542435
747.378723	-36.469654	142.594070	126.019135
747.783020	-35.973164	155.466721	104.222191
748.187378	-5.685744	131.699768	127.009666
748.591614	-22.565329	144.574722	154.244263
748.995850	-63.791622	182.193909	129.486084
749.399963	-58.326286	130.709167	93.816376
749.804077	-14.621305	129.223434	98.276459
750.208130	-58.326286	159.922272	98.276192
750.612122	-35.973030	148.040482	79.443634
751.016052	-48.390331	117.335915	85.391357
751.419922	-47.893738	133.185425	122.551979
751.823792	-31.006737	147.050415	112.149460
752.227478	-39.449631	151.011246	72.007912
752.631226	-43.919945	141.108643	108.185814
753.034851	-49.384068	121.793869	98.771828
753.438477	-60.810406	123.775200	111.653938
753.842102	-32.993229	102.473053	95.303108
754.245544	-64.288490	129.718552	96.294151
754.648987	-31.006737	138.632828	87.869484
755.052368	-53.854870	111.391083	105.213226
755.455750	-25.048065	98.509056	105.213226
755.859009	-9.160554	87.606659	56.638248
756.262268	-40.442944	123.775200	131.467178
756.665405	-65.282356	109.409332	86.878166
757.068542	-57.829475	150.020966	85.391357
757.471680	-48.390465	99.995674	57.133957
757.874634	-36.469788	125.756340	63.579693
758.277588	-40.442944	124.270622	90.347374
758.680420	-18.096777	123.775070	94.312050
759.083374	-58.326286	123.775200	77.460968
759.486084	-62.301064	107.923088	94.312050
759.888916	-45.906876	80.667732	105.708672
760.291504	-39.449631	119.317131	118.589157
760.694214	-52.364429	116.840302	137.409775
761.096802	-50.874294	115.849731	103.726738
761.499268	-53.358101	147.050415	73.991020
761.901733	-14.124865	102.472923	93.320976
762.304199	-39.946285	133.680649	77.956505
762.706543	-41.932945	137.147156	72.999336
763.108826	-23.061840	96.526886	102.735947
763.511108	-55.842140	103.464119	50.191498
763.913208	-40.939739	82.154655	76.469345
764.315369	-35.476406	109.904739	61.596504
764.717529	-9.160554	99.004555	81.426231
765.119568	-43.919807	121.793869	69.033524
765.521545	-50.874294	144.574722	87.373894
765.923462	-34.483040	287.504150	156.224411
766.325317	-41.436272	321.086548	210.160660
766.727112	-36.966419	365.506622	309.991791
767.128845	-44.913471	359.585846	291.717773
767.530518	-21.572317	349.716614	225.491898
767.932251	-49.880806	278.117249	250.211212
768.333862	-39.946285	223.746109	154.244263
768.735413	-40.939739	160.417267	164.639709
769.136841	-70.748344	183.678482	185.920212
769.538269	-29.020447	235.613098	163.649780
769.939636	-32.496635	252.420410	165.629486
770.341003	-60.810539	260.328369	180.476898
770.742249	-47.396881	288.491943	190.868011
771.143433	-65.282356	207.920090	150.283646
771.544617	-46.403450	128.232941	148.303177
771.945740	-43.919945	135.661453	147.312988
772.346802	-49.384068	122.784744	120.075272
772.747803	-21.572182	139.128006	106.699539
773.148682	-6.678488	116.345085	118.589294
773.549622	-43.422985	109.409470	51.679314
773.950439	-25.544462	92.066940	84.400269
774.351196	-58.823238	101.977585	61.100563
774.751892	-46.403450	103.463989	61.596642
775.152588	-52.861462	120.803375	76.469482
775.553162	-35.973030	113.868134	96.294151
775.953735	-25.544462	91.571381	48.207863
776.354309	-25.048065	63.316895	69.529129
776.754639	-33.489830	95.040451	53.662827
777.155090	-32.993500	110.400421	42.752262
777.555420	0.766948	83.641541	16.955713
777.955750	-36.469788	99.004555	38.288307
778.355896	-20.579187	80.172089	49.695595
778.756104	-23.061840	106.932228	76.965027
779.156189	-36.966419	87.606529	88.365074
779.556274	-45.906742	104.454895	63.084038
779.956299	-5.685879	76.702156	66.554619
780.356201	-60.810406	72.736450	72.999336
780.756165	-57.829475	81.163513	73.990883
781.156006	-31.503454	59.845993	59.117428
781.555786	-33.986568	91.075829	91.338638
781.955505	-9.656952	92.562492	77.956505
782.355225	-44.913334	74.223701	68.537643
782.754761	-46.403450	77.197830	44.240131
783.154358	2.752167	98.508919	51.679176
783.553894	-29.020447	98.509056	61.596642
783.953369	-43.919945	109.409470	34.816078
784.352783	-40.443077	100.491158	44.736214
784.752075	-47.893738	94.544655	53.166954
785.151367	-44.416637	69.266365	46.224030
785.550598	-24.551401	43.977116	54.158695
785.949768	-36.966419	77.197968	79.443634
786.348877	-32.496635	75.214966	64.075615
786.747986	-33.986568	69.266228	26.382736
787.147034	-34.483040	36.041096	53.166954
787.545959	-34.483177	66.787468	50.687393
787.944885	12.181586	55.879169	11.001018
788.343750	-35.973164	52.903843	47.711945
788.742493	-43.919807	66.291702	35.808262
789.141235	-54.848564	60.341946	54.654697
789.539917	-28.027327	99.500046	19.436413
789.938538	-52.364563	76.206474	13.482237
790.337158	-11.146309	71.249290	71.016464
790.735718	-63.294765	62.821106	34.320049
791.134094	-48.887196	75.710785	57.133957
791.532532	-20.579187	80.171951	-2.895381
791.930847	-41.933079	69.266228	72.503761
792.329224	-45.409901	79.676430	56.142265
792.727417	-35.476543	52.407967	56.638248
793.125610	-44.913200	36.041096	66.058716
793.523682	-5.685609	75.215096	36.800156
793.921753	-36.469654	42.985207	52.175194
794.319824	-24.055012	44.969147	52.175060
794.717773	-39.946285	56.871002	67.050377
795.115723	-30.510292	51.912216	68.537643
795.513550	-14.124999	45.464954	56.142132
795.911377	-9.656952	45.464954	73.990883
796.309082	-12.139143	77.197968	13.978440
796.706787	-63.791622	51.416328	52.175060
797.104370	-53.855007	72.736588	35.312237
797.501953	-61.804218	73.232300	34.815945
797.899536	-62.797909	91.571381	23.405937
798.296936	-67.766907	62.821106	47.215889
798.694397	-61.307377	49.928505	48.207729
799.091736	-49.383930	49.432468	64.075615
799.489014	-31.503454	70.257706	35.808128
799.886230	-18.096777	40.505222	49.199688
800.283447	-43.919945	51.416195	33.823879
800.680542	-29.517147	57.862679	11.497377
801.077637	-26.041000	47.448811	56.638115
801.474670	-43.919945	62.325172	30.351389
801.871643	-39.449631	63.316761	39.776283
802.268555	-62.301064	22.646566	20.925133
802.665405	-39.946419	93.058174	21.917414
803.062256	-36.469788	53.895729	3.556872
803.458923	-21.572182	46.457092	69.529129
803.855652	-44.416637	71.249290	43.744183
804.252258	-58.822968	41.993145	41.760197
804.648804	-27.034222	29.096170	43.248222
805.045410	-37.463051	67.283226	31.839703
805.441833	-27.530771	72.736588	21.917549
805.838257	-35.476543	69.761971	17.948061
806.234619	-49.880672	48.936695	53.662827
806.630859	-32.496635	54.391590	63.579964
807.027100	-31.006737	56.871002	43.744183
807.423279	-38.952980	36.040958	50.687393
807.819458	-76.214981	46.456959	62.092445
808.215515	-41.933079	32.568867	44.736080
808.611572	-14.124999	47.448811	39.280296
809.007507	-71.742325	61.829372	36.800156
809.403381	-36.469654	58.854481	36.800156
809.799194	-58.822968	67.778984	8.023445
810.195068	-49.880672	62.325172	11.000883
810.590759	-23.061840	66.291702	17.947926
810.986450	-73.233131	83.641541	59.117428
811.382080	-7.671382	31.576496	34.815945
811.777649	-62.301064	62.821106	59.117294
812.173157	-73.233131	65.795937	39.280296
812.568665	-62.300926	60.837761	47.711945
812.964050	-25.544462	58.854347	37.792171
813.359375	-58.822968	33.064777	27.374924
813.754639	-39.946285	59.845993	13.978440
814.149841	-60.810406	35.048916	14.474505
814.545105	-43.423256	26.615606	24.894287
814.940186	-29.517147	40.505222	21.917278
815.335266	-46.900162	56.870865	9.512182
815.730347	-51.371048	50.424408	62.588104
816.125244	-13.628293	42.489243	25.886501
816.520203	-44.913200	70.753563	37.296165
816.914978	-39.449631	57.862679	65.562950
817.309753	-38.953114	211.876846	117.103134
817.704468	-49.383930	447.848450	270.473846
818.099182	-63.791622	839.406311	527.393372
818.493774	-26.041000	1242.894287	795.073364
818.888367	-25.544462	1722.195923	1128.588135
819.282898	-37.463051	2046.897339	1406.165771
819.677307	-36.469788	2317.498047	1687.587280
820.071716	-37.959553	2039.663452	1589.203857
820.466003	-51.867805	1583.611938	1411.026489
820.860291	-43.919945	1195.140259	1175.410278
821.254517	-33.489964	856.549744	944.419922
821.648743	-36.469788	568.951416	686.165161
822.042786	-49.880672	384.252625	446.138794
822.436890	-6.182114	307.260590	316.411072
822.830872	-16.110786	208.909302	233.897568
823.224792	-41.933079	140.118454	171.074112
823.618774	-35.973030	145.069839	116.607918
824.012512	-25.544598	83.146049	97.780823
824.406311	-38.456329	102.473053	55.150555
824.799988	-29.517014	68.274734	61.100697
825.193665	-32.496635	49.432606	94.807579
825.587280	-44.416637	63.812687	85.391357
825.980835	-41.436409	49.928642	71.016464
826.374329	-61.804218	66.291702	26.382603
826.767761	-23.061840	41.993275	55.646549
827.161194	-45.409901	71.745018	54.158562
827.554443	-52.364700	53.895729	12.489546
827.947754	-73.730202	20.662016	73.495316
828.340942	-44.416637	34.553020	33.327976
828.734131	-57.829475	60.837761	37.792305
829.127136	-54.848564	62.325172	45.232155
829.520264	-38.456196	57.862679	34.319912
829.913208	-37.959553	28.103876	16.955713
830.306152	-44.913334	29.096170	47.711945
830.699097	-26.537676	27.607925	18.444227
831.091797	-40.939739	74.223839	21.421274
831.484619	-25.544462	20.165731	4.053160
831.877319	-58.822968	44.473064	5.541997
832.270020	-70.748344	73.728134	30.351524
832.662537	-12.139009	28.599960	59.117428
833.055054	-41.933079	45.465088	14.970837
833.447510	-49.383930	50.920303	2.067984
833.839966	-31.503590	14.707692	43.248222
834.232361	-63.294765	25.623541	29.855324
834.624634	-56.835735	-4.648067	45.727959
835.016907	-38.952980	36.537109	4.549443
835.409058	-13.628428	23.142694	1.571545
835.801208	-10.153356	56.375153	64.075615
836.193298	-13.131995	-8.122680	17.451889
836.585327	-39.449631	26.615606	5.542132
836.977295	-49.880672	10.241624	53.662827
837.369202	-38.953114	10.241624	1.571545
837.761047	-51.371048	17.684929	12.985892
838.152832	-30.510292	46.952885	17.948061
838.544617	-45.410034	26.119507	27.374924
838.936218	-45.906742	52.407967	6.534534
839.327942	-40.443214	38.521133	-20.270655
839.719421	-22.565329	43.977253	40.768383
840.111023	-26.040865	18.677399	14.970972
840.502380	-57.332672	50.424408	5.541862
840.893860	-41.933079	12.226525	47.711945
841.285217	-47.893738	39.017262	-6.866671
841.676453	-77.705894	11.730441	24.398174
842.067749	-8.167768	36.041229	21.421274
842.458862	-41.436272	42.985207	66.554489
842.849976	-61.307240	8.256658	8.519695
843.241028	-23.558357	36.537109	17.451754
843.632019	-51.371048	15.203887	37.792305
844.022949	-41.933079	9.745389	26.382603
844.413879	-51.867805	11.234083	25.390532
844.804749	-35.973030	40.505222	21.421410
845.195496	-48.390331	33.064777	4.549578
845.586182	-53.358101	9.745389	-11.830788
845.976807	-68.760567	16.692444	26.382603
846.367432	-70.748482	19.173424	20.924999
846.757996	-67.766769	20.662016	30.351389
847.148499	-48.390465	2.300815	2.067849
847.538879	-24.055012	-0.677061	8.023445
847.929260	-11.146173	7.263879	44.240131
848.319641	-33.986568	-18.051544	20.924999
848.709839	-40.939739	16.692579	4.053160
849.100098	-53.358101	27.607925	27.871012
849.490234	-14.124865	28.103876	-24.739508
849.880310	-26.537540	11.233949	-25.732708
850.270325	-35.973030	34.553020	-13.320199
850.660339	-50.377415	16.692579	23.405802
851.050171	-45.906876	31.576496	19.436684
851.440125	-40.443077	65.795937	30.351524
851.829895	-47.397018	38.025265	1.571545
852.219604	-20.579187	6.271488	31.343647
852.609314	-28.027327	34.056854	14.474641
852.998901	-72.239258	10.241624	12.985892
853.388550	-49.880806	33.064777	55.150555
853.778015	-48.390331	7.264014	0.082607
854.167480	-40.939739	7.760270	43.744183
854.556885	-20.579187	2.300950	77.460838
854.946228	-39.449631	-19.044632	1.075372
855.335571	-28.027327	30.088314	4.053160
855.724731	-48.390331	21.654299	14.474641
856.113953	-51.867805	-3.655087	25.390532
856.503052	-47.397018	2.300950	11.001018
856.892151	-22.565329	11.234083	40.272404
857.281067	-35.476543	-15.569239	6.038403
857.670105	-42.926571	-21.527220	45.728096
858.058960	-52.861195	24.135073	7.030932
858.447754	-54.848564	-19.044632	3.556737
858.836609	-47.397152	25.623270	11.993464
859.225281	-59.319923	48.936562	-8.852213
859.613892	-55.842140	33.560684	-9.348609
860.002502	-14.124865	25.623270	16.955713
860.391052	-6.181979	-6.633399	-1.406503
860.779541	-17.600172	4.286252	7.527326
861.167969	-47.397018	10.737856	-3.391862
861.556335	-60.313576	-0.676926	-20.270788
861.944702	-53.854870	-17.058744	9.512182
862.332947	-32.000042	20.165731	-12.327209
862.721069	-34.483177	-0.180603	-3.391862
863.109253	-28.027327	-10.604671	27.871012
863.497314	-16.110786	42.985207	-11.334236
863.885376	-58.326286	6.271353	9.512318
864.273315	-20.082697	-1.173388	-8.355822
864.661255	-31.006737	-0.676926	-14.312936
865.049072	-73.729935	-8.122680	-48.578781
865.436890	-69.257607	21.654299	3.556872
865.824707	-51.371048	12.226525	22.909678
866.212280	-49.383930	22.646566	20.428988
866.599915	-42.926571	53.399990	17.947926
866.987488	-48.887196	22.646566	3.556872
867.375061	-24.054741	27.607925	4.053160
867.762451	-49.880672	25.623541	30.847588
868.149841	-40.939739	29.592243	15.467029
868.537170	-48.887196	49.928505	6.534669
868.924438	-38.953114	-4.647932	36.800156
869.311707	-85.161461	3.789967	8.023310
869.698853	-11.642589	26.119507	-12.327209
870.085938	6.722675	-0.180603	5.045722
870.472961	-40.443077	-9.611861	13.482237
870.859985	-50.377415	22.646566	22.909678
871.246887	-46.403450	13.219086	16.955713
871.633789	-31.006872	29.592243	0.578924
872.020569	-54.351784	-10.108264	11.497243
872.407349	-43.423119	21.654299	20.925133
872.794067	-59.816879	-24.506298	-7.859299
873.180725	-16.110786	6.271353	-13.816632
873.567322	-20.579187	-15.569239	9.512182
873.953796	-28.027327	22.150436	-33.678101
874.340332	-33.986568	28.600092	3.060580
874.726624	-44.913334	1.804648	2.564284
875.113037	-66.275970	24.631052	13.482237
875.499329	-34.979790	11.233949	2.564284
875.885559	-29.517147	16.692579	13.482237
876.271729	-53.358101	7.264014	14.474505
876.657898	-62.301064	-0.677061	-23.249943
877.044006	-53.358101	11.233949	-26.725653
877.429932	-28.523884	11.730307	1.571545
877.815918	-57.829475	22.646566	21.917414
878.201782	-34.483177	-3.655087	13.978306
878.587585	-31.503321	-0.180738	29.855324
878.973389	-44.416637	-4.647932	-29.705269
879.359070	-16.110786	-9.115463	-21.760414
879.744751	-25.544462	26.615606	-14.312936
880.130310	-2.707480	0.812031	-15.306094
880.515930	-36.469788	25.623405	4.549443
880.901367	-59.816879	6.271488	23.902058
881.286804	-30.013718	-23.513254	-7.362915
881.672180	-26.041000	13.715293	17.948061
882.057434	-23.558357	-1.173388	13.482237
882.442749	-51.867805	35.049049	-10.837823
882.827942	-36.966419	10.241624	27.870878
883.213013	-39.449631	16.692579	19.932837
883.598145	-24.054876	18.181099	21.421141
883.983154	-47.893604	-4.151440	-13.816498
884.368042	-46.403450	17.188755	13.978576
884.753052	-39.946419	-0.677061	-8.852213
885.137817	-50.377415	-12.590340	-9.845010
885.522644	-17.600172	-2.166055	-7.362915
885.907349	-34.483040	20.165867	-12.823499
886.292053	-49.383930	-33.444721	-12.327209
886.676636	-31.503454	4.286252	11.001018
887.061157	-27.530771	-12.590474	16.955713
887.445740	-26.041000	-24.009775	-1.406368
887.830078	-26.537540	-15.569239	24.398041
888.214539	-8.664023	32.568733	15.467029
888.598816	-65.779228	-14.079770	-5.377422
888.983093	-26.041134	-6.137026	-0.910039
889.367249	-10.153356	36.041096	20.924999
889.751465	-78.699997	-16.065691	7.527326
890.135498	-77.208923	-11.597497	-20.270788
890.519531	-50.874294	-13.086902	-3.391862
890.903503	-52.364563	4.782534	-18.284592
891.287415	-32.496635	-2.662530	-15.305960
891.671326	-51.371048	-4.647932	-2.895516
892.055054	-46.900299	-9.115463	11.993464
892.438843	-36.469788	-15.072925	5.542132
892.822510	-21.572182	6.271353	-37.651196
893.206116	-42.926437	6.271353	-10.837823
893.589661	-20.579187	7.263879	-37.651196
893.973206	-48.390465	9.249149	-12.823770
894.356628	-32.000042	15.700076	-14.312936
894.739990	-49.880806	0.315716	-41.624702
895.123352	-31.006737	-1.173523	-28.712002
895.506592	-39.449764	-8.122680	-38.644482
895.889832	-46.900162	1.308342	7.527326
896.272949	-37.463051	-3.655087	-24.739508
896.656067	-33.986435	15.700076	8.023445
897.039063	-41.436409	-33.444855	3.556737
897.422058	-69.754517	-3.158874	-8.852213
897.804993	-26.537540	-36.424679	-3.888212
898.187866	-42.926437	22.150572	9.015941
898.570618	-44.416637	-5.144292	25.390396
898.953369	-25.047930	-32.948257	35.311970
899.336121	-23.558357	-5.640657	-4.384566
899.718689	-64.785484	14.211360	9.512452
900.101257	-49.880672	-4.151575	-11.334371
900.483704	-29.020582	-10.604671	6.038268
900.866211	-32.993229	-18.051544	0.578789
901.248596	-20.579054	-9.611861	8.519695
901.630920	-28.027327	-13.086902	-16.795324
902.013184	-25.048065	29.096306	46.719959
902.395386	-38.456329	35.545074	2.564284
902.777588	-43.919945	-29.968611	9.512318
903.159668	-6.182114	18.677128	-2.895516
903.541687	-49.383930	-1.173523	16.955713
903.923645	-28.027327	11.730171	-24.243116
904.305603	-44.416500	-2.662530	0.082472
904.687500	-33.489830	5.278811	24.398174
905.069275	-0.722010	-10.604671	17.947926
905.451050	-45.906742	-1.669720	15.467029
905.832642	-49.880672	30.088314	-2.895516
906.214294	-53.358101	32.568600	6.534669
906.595825	-86.155548	4.782534	5.045722
906.977417	-6.678353	7.264014	17.948061
907.358826	-38.456329	-4.151575	-16.298864
907.740234	-55.345352	16.196262	-13.319929
908.121582	-59.319923	6.767753	-8.852213
908.502869	-64.288490	-34.934814	14.970702
908.884033	-71.245399	-19.540977	-13.816632
909.265198	-45.906876	-4.151440	-20.767416
909.646301	-29.517147	-6.137026	11.993464
910.027344	-54.351784	0.812031	-18.781336
910.408325	-13.628428	-7.626159	-21.263779
910.789246	-55.842140	-15.569239	-37.154564
911.170105	-53.854870	-4.151575	0.578924
911.550903	-56.339069	-14.079770	-7.362915
911.931641	-46.403450	2.797384	1.571545
912.312317	-30.013718	-9.115463	7.030797
912.692932	-32.993366	41.001198	17.451754
913.073547	-48.390331	0.811896	15.963216
913.453979	-9.656952	10.241489	24.894152
913.834473	-39.946285	-16.065556	-13.320064
914.214783	-39.449631	-8.619069	10.008554
914.595154	-30.013718	-5.640657	19.932837
914.975464	-61.804218	-10.108264	16.459400
915.355652	-61.307377	-5.144292	11.497243
915.735840	-0.722145	-37.914577	-9.348609
916.115845	-48.390331	5.278811	-31.195131
916.495972	-44.913200	-10.108399	2.564284
916.875854	-43.422985	-20.534090	22.909678
917.255859	-48.390465	2.797384	9.512182
917.635620	-37.463051	-12.094051	28.367096
918.015503	-41.436409	-7.626294	-23.249807
918.395203	-41.933079	-16.562014	38.288307
918.774902	-27.530636	20.165867	-26.229246
919.154480	-29.020582	15.700212	-13.320064
919.534058	-18.593115	11.730307	26.878832
919.913574	-28.523884	27.111700	-10.837823
920.292969	-60.810406	37.033123	13.482237
920.672363	-31.503454	-5.144157	2.564284
921.051636	-40.939739	2.797384	0.082472
921.430969	-26.537540	22.646566	5.541997
921.810181	-51.371048	27.111700	1.571545
922.189331	-87.646858	-13.583468	-0.910039
922.568420	-45.410172	-25.499496	-7.362915
922.947388	-61.307240	1.804648	13.482237
923.326416	-30.013582	15.700076	44.240131
923.705261	-47.397152	1.308477	16.955578
924.084106	-48.390331	-7.129777	-14.809378
924.462891	-68.263802	4.782669	-3.391997
924.841675	-31.503454	0.315716	-17.788254
925.220337	-46.900162	10.737721	-8.852213
925.598938	-45.906876	18.677128	-15.802410
925.977478	-32.000175	-24.009911	-11.334371
926.355957	-59.320057	-8.122544	14.474505
926.734436	-41.436409	-17.555075	-4.384566
927.112732	-32.496635	9.745389	-22.753429
927.491089	-29.517014	-20.534090	-8.852213
927.869324	-52.364563	-21.030584	-18.781336
928.247559	-65.282356	8.752770	-13.320064
928.625671	-23.061840	-1.173388	4.549578
929.003723	-42.926437	1.308342	8.519695
929.381775	-32.000042	-15.072925	-27.718887
929.759705	-34.979656	-17.555075	0.082472
930.137634	-5.189109	-9.611861	-38.147839
930.515381	-37.959553	-36.424679	-13.816632
930.893250	-41.436272	-3.158874	31.343647
931.270935	-7.174866	-40.397827	-52.056133
931.648560	-33.986568	0.812031	6.534669
932.026123	-20.082697	-2.662530	-8.355822
932.403687	-44.416637	-44.371521	-31.194998
932.781250	-34.979790	-39.901306	-12.327209
933.158630	-33.489830	17.188755	27.374924
933.536011	-38.456329	-12.094051	-20.767416
933.913208	-18.096642	32.072552	-9.845010
934.290527	-26.041000	-25.996033	5.542132
934.667664	-58.326286	-3.158874	-32.188171
935.044800	-30.510292	2.797249	-1.902836
935.421814	-53.358101	-11.101082	-22.256784
935.798889	-49.383930	15.700076	-1.902836
936.175842	-81.184990	3.789832	28.367096
936.552673	-21.075684	38.025265	-45.101505
936.929504	-38.456329	-31.458347	8.519695
937.306274	-39.449631	-78.157867	-8.355822
937.683044	-15.614334	-35.928051	-31.194998
938.059570	-28.027327	-5.144292	-43.611420
938.436218	-50.377415	-42.881321	-14.312936
938.812744	-66.773125	-3.158874	-2.399174
939.189148	-49.383930	-28.975475	-6.370160
939.565613	-36.469654	8.752770	-10.837823
939.941956	-95.600563	-42.384777	-23.746460
940.318237	-46.403450	-17.555075	-11.830788
940.694458	-33.489830	-9.611861	27.374924
941.070557	-59.816879	-35.928051	-6.866536
941.446655	-22.565193	-8.122680	-20.270655
941.822693	-53.854870	-37.417938	-5.873789
942.198669	-64.288490	-5.640792	-5.377422
942.574646	-13.131861	-33.444855	-27.222336
942.950562	-74.723969	-22.520227	-40.631100
943.326294	-44.416637	-29.968477	-30.201839
943.702026	-32.993366	-25.499496	-27.222336
944.077698	-41.436409	-46.855183	-13.319929
944.453369	-46.403450	-42.384640	-40.631100
944.828918	-53.855007	-36.921173	-28.712002
945.204468	-31.007008	-35.928051	-8.852213
945.579834	-23.558357	-27.485668	-16.795324
945.955261	-54.848564	-13.583468	-44.107975
946.330627	-33.490101	-44.868217	-30.201839
946.705811	3.744752	-55.300362	-6.370296
947.081055	-24.054741	-27.982357	-27.719021
947.456177	-25.544462	-25.002829	-12.327209
947.831238	-29.020447	-10.108399	-7.362915
948.206238	-46.900162	3.293677	-25.732708
948.581238	-52.364563	-22.023722	-62.489151
948.956116	-48.390465	-55.300224	-5.377422
949.330933	-24.551537	-44.371387	-54.539848
949.705811	-56.835735	-62.255932	-56.030346
950.080505	-45.410172	-23.016603	-47.585194
950.455139	-49.880672	-23.016739	-15.305824
950.829773	-66.773125	-19.044632	-38.644482
951.204346	-30.510292	-10.108399	9.015941
951.578735	-41.933079	-25.996033	-24.739508
951.953186	-62.797909	-26.989254	-12.823635
952.327515	-53.854870	-10.108399	-10.837823
952.701843	-66.276108	-13.087037	-26.229246
953.076172	-58.326286	-38.908001	-6.370160
953.450195	-53.854870	-49.835686	-31.194998
953.824341	-54.351784	-43.378139	-42.617920
954.198486	-54.351646	-16.562149	-0.413714
954.572449	-56.835735	-32.948257	-30.201839
954.946350	-53.855007	-24.506298	2.564284
955.320251	-66.275970	-24.009775	-32.188305
955.694092	-36.469654	-27.982222	-36.161171
956.067871	-42.926437	-38.907867	-14.809378
956.441589	-34.979790	-11.101082	-23.746460
956.815125	-57.829475	-5.640657	-29.705269
957.188721	-30.510292	-45.364918	-2.895651
957.562256	-9.160554	-25.499496	-35.664547
957.935730	-23.061705	-44.371521	-13.816498
958.309021	-31.503590	-59.274792	-31.691582
958.682373	-56.338932	-37.914711	-26.725788
959.055664	-19.089594	-31.955069	-10.341549
959.428955	-48.390465	-3.655087	-6.370160
959.802063	-57.829475	-47.351765	17.451889
960.175110	-29.020447	-27.982222	-22.753429
960.548157	-39.449631	9.745389	-6.370160
960.921143	-23.061705	-45.861622	-27.719021
961.294128	-25.047930	-53.809879	8.023580
961.666809	-38.456329	-15.569239	22.413546
962.039612	-34.979790	-32.451527	-28.712002
962.412415	-43.423119	-14.079770	32.335751
962.785095	-44.416637	-14.079770	-26.229246
963.157715	-65.282356	-12.590474	-60.501930
963.530151	-39.946285	-19.541113	-17.788254
963.902649	-63.294903	-39.901306	-41.127899
964.275146	-24.054741	-25.996033	-14.312936
964.647522	-38.952980	-39.901306	14.970972
965.019714	-28.027462	-26.989119	-14.313070
965.392029	-46.900299	-25.996033	-24.242981
965.764160	-54.351784	-5.144292	-12.327209
966.136292	-42.429756	-29.472042	-23.746460
966.508423	-42.926437	-22.520227	-27.222336
966.880371	-43.423119	-25.002829	-31.194998
967.252319	-60.313576	-0.677061	-46.095047
967.624207	-18.593115	-47.848618	-28.712137
967.996094	-32.496635	-9.611861	-23.249943
968.367737	-51.371048	-28.975340	-43.611420
968.739441	-39.449631	-12.094051	-9.845010
969.111084	-41.436409	-32.451660	-32.188171
969.482666	-32.000175	-34.438206	-10.837958
969.854248	-38.456467	-12.590474	-28.215443
970.225586	-34.979790	-29.472042	-18.284725
970.596985	-36.966419	11.730307	-8.852078
970.968323	-10.153220	-39.404514	-16.795324
971.339661	-33.489830	-22.520227	-39.140995
971.710754	-42.926437	-27.982222	-17.291786
972.081909	-13.628428	-40.894627	-43.114868
972.453064	-45.410034	-19.540977	-13.320064
972.824097	-26.041134	-75.673012	17.948061
973.194946	-24.054741	-33.444855	-8.355686
973.565918	-53.358101	-12.093917	-9.845010
973.936768	-55.345352	-38.411221	1.571545
974.307556	-26.537540	-35.431431	-35.664547
974.678284	-38.456467	-51.325928	-12.327209
975.048828	-50.874294	-4.151440	-12.823499
975.419495	-32.496635	0.315716	-45.598206
975.790039	-2.707480	-76.666801	-2.399039
976.160522	-22.068686	-19.044632	12.489816
976.530884	-34.979656	-37.914577	-0.413714
976.901245	-11.146173	-23.513121	-24.242981
977.271606	-33.986568	-17.555075	-25.236038
977.641846	-24.551266	-40.894627	-33.678234
978.012024	-41.933079	-43.874825	-9.348609
978.382019	-45.906742	-18.548153	-14.809378
978.752136	-39.946285	-29.968611	-42.121243
979.122131	-44.913334	-23.513121	-29.208700
979.492065	-17.103571	1.804648	-37.651196
979.861877	-80.687981	-48.345478	-34.671452
980.231689	-21.572317	-36.921440	-16.298729
980.601440	-25.544462	-41.887966	-10.837958
980.971191	-44.416500	-37.418076	-23.746460
981.340820	-40.443077	-1.669720	-29.208700
981.710266	-18.593115	-34.438206	-5.873924
982.079773	-50.874294	-35.431431	-35.664547
982.449280	-25.544462	-21.030584	-31.691582
982.818604	-27.530771	-46.358463	-49.572117
983.187866	-65.282356	-18.548018	-27.719021
983.557129	-45.906742	-14.576345	-1.902836
983.926331	-21.572317	-15.569239	-30.201839
984.295471	-55.345352	-54.803440	8.519695
984.664612	-10.649762	-30.961765	-22.753429
985.033569	-29.020582	-32.948257	-18.284861
985.402527	-59.816608	-38.907867	30.847588
985.771362	-47.893604	-39.901306	-0.910039
986.140259	-45.906876	-31.458347	-27.222336
986.508911	-42.926437	-36.921173	-47.585060
986.877625	-11.146173	-55.797012	-33.181496
987.246277	-28.523884	-17.555075	-20.767416
987.614929	-4.692883	-25.002829	-28.215443
987.983459	-29.020447	-30.465052	-37.154564
988.351807	-35.476543	-49.338676	-22.256920
988.720215	-13.628428	-60.268581	-16.298729
989.088623	-33.986568	-45.861755	-22.753429
989.456909	-19.089594	-30.465185	-15.802410
989.825012	-56.339069	-35.431297	-35.167931
990.193115	-10.153356	-36.424679	-2.399039
990.561279	-4.693018	-17.058744	-18.284725
990.929321	-15.614334	-24.506298	-42.617920
991.297302	-36.469654	-15.569239	-26.725653
991.665100	-48.887196	5.278811	-23.746460
992.033020	-51.371048	-26.989119	-49.572117
992.400818	-30.510292	-28.975611	-28.215443
992.768494	-61.804085	-19.541113	-30.698551
993.136047	-29.020447	-62.255795	-30.201706
993.503723	-35.973164	-19.044632	-47.585331
993.871277	-48.390465	-51.822681	-33.678234
994.238770	-43.919945	-28.975340	-9.348609
994.606140	-42.429756	-52.319439	-32.684898
994.973450	-35.973030	-39.404652	-26.725653
995.340759	-41.436409	-0.676926	-10.341549
995.708008	-33.489964	-40.397964	-43.611286
996.075195	-26.537676	-21.030584	-14.809378
996.442200	-20.579054	-34.438068	-47.585194
996.809265	-57.829475	-25.499361	-17.788254
997.176270	-36.966282	-31.954935	-35.167931
997.543152	-10.153220	-13.086902	-16.298864
997.910095	-83.173058	-43.378139	-4.384566
998.276733	-41.436272	7.264014	-12.823635
998.643494	6.722675	17.684793	-31.691717
999.010193	-29.517014	-21.527082	-36.161304
999.376831	-44.416637	-21.030584	-12.823635
999.743286	-64.288620	-2.165920	-3.391862
1000.109802	-44.416637	-33.941597	4.549443
1000.476257	-34.979790	-43.874825	-18.781336
1000.842651	-15.614334	-13.086902	-13.816632
1001.208923	-51.371048	-29.968477	-11.334236
1001.575134	-65.282356	-12.094051	-27.222336
1001.941284	-57.332672	-36.921440	-13.816498
1002.307434	-33.489964	-19.541113	-8.852213
1002.673523	-40.939739	-50.829037	-45.598343
1003.039429	-39.946285	-39.404652	-48.578781
1003.405334	-41.436272	-57.784214	-20.270655
1003.771179	-36.966419	-41.391293	-55.036903
1004.137024	-36.966553	-17.058609	-28.215443
1004.502808	-14.124999	-19.541113	-36.657932
1004.868408	-53.854870	-32.451660	-22.256920
1005.234009	-26.537540	-40.397964	-8.852213
1005.599609	-30.013718	-29.968477	-53.546432
1005.965149	-29.020582	4.782534	-30.698416
1006.330444	-6.678353	-19.540977	-7.362915
1006.695862	-37.959553	-28.975340	-31.691582
1007.061218	-49.384068	-36.424679	-51.559105
1007.426453	-29.020447	13.218950	-14.312936
1007.791626	-20.579054	-26.492573	-13.320199
1008.156677	-16.607244	-28.478779	-24.243116
1008.521729	-33.489830	-30.465321	-22.256784
1008.886780	-23.061840	-37.417938	-9.348609
1009.251709	-17.600172	-2.662395	-8.355686
1009.616577	-9.160554	-35.431297	-30.698416
1009.981384	-38.952980	-17.555075	-35.664547
1010.346130	-30.510159	-30.465052	-36.161304
1010.710754	-42.429756	-69.709381	-28.215443
1011.075439	-50.377548	-2.662395	16.955713
1011.439941	-17.103842	-58.281162	-17.788254
1011.804443	-43.423119	-31.458347	-38.147976
1012.168884	-33.489830	1.308477	-38.644482
1012.533325	-9.656952	-12.093917	-16.795324
1012.897522	-6.182114	-14.576210	-40.631100
1013.261780	-19.089594	-18.051544	-41.624702
1013.626038	-35.476406	-31.458347	-44.604942
1013.990112	-34.483040	-31.458347	-63.482994
1014.354187	-55.842140	-0.677061	-22.256784
1014.718140	-33.986568	3.293677	-18.781471
1015.082153	-24.551266	-57.287544	-52.055996
1015.446045	-42.926437	-7.129912	18.444227
1015.809937	-25.048065	-50.332428	-25.236038
1016.173523	-49.880672	-39.901306	-33.677963
1016.537170	-35.973030	-66.727997	-10.837823
1016.900879	-48.390465	-35.431297	-56.527279
1017.264404	-57.332535	-57.784214	-16.795458
1017.627991	-39.449631	-6.633399	11.497243
1017.991333	-70.748482	-20.037735	-25.236038
1018.354675	-54.848564	-40.397964	-26.229246
1018.718018	-1.218337	-37.914711	-23.249807
1019.081299	-21.572182	-56.790607	-35.664547
1019.444397	-60.313576	-38.411221	-36.657932
1019.807495	-43.423256	-37.418076	-38.644482
1020.170593	-31.006737	-22.023586	-23.746460
1020.533691	-29.020447	-32.451660	1.571545
1020.896606	-46.403450	-22.023722	-49.572117
1021.259460	-25.544462	-63.746490	-27.222471
1021.622253	-41.436409	-21.030584	-10.837823
1021.985046	-56.835735	-9.115328	-17.788254
1022.347778	-50.874294	-24.009911	-27.719021
1022.710327	-84.664284	-35.431431	-42.121243
1023.072876	-52.861462	-5.640657	5.045722
1023.435364	-36.966419	-60.268581	-31.691582
1023.797852	-44.416637	-68.218529	-36.161304
1024.160278	-41.436409	-27.485668	-41.624702
1024.522461	-60.313576	-27.982357	-40.631100
1024.884766	-25.544462	-17.058744	-43.611420
1025.246948	-76.214981	-55.797012	-56.527142
1025.609131	-32.000175	-56.790607	-26.229246
1025.971069	-43.423256	-39.901306	-49.572250
1026.333130	-28.027327	-57.784348	-40.134571
1026.694946	-7.174866	-16.562283	-14.312936
1027.056885	-30.510292	-20.534225	-36.657932
1027.418823	-23.061840	-21.030720	-35.167931
1027.780396	-53.854870	13.219086	-42.121243
1028.142090	-3.203690	-23.016603	-40.134571
1028.503784	-57.829475	-44.868351	-28.215443
1028.865479	-37.463051	-72.193977	-29.705269
1029.226807	-39.946285	-33.941460	-27.719021
1029.588135	-37.959553	-6.633399	-2.895651
1029.949707	-64.785484	-55.300224	-48.081917
1030.310913	-32.993229	-58.281162	-32.188034
1030.672241	-77.706032	-42.881454	-28.712002
1031.033325	-35.476406	-50.332428	-42.617920
1031.394531	-24.054876	-44.371387	-44.107975
1031.755493	-53.854870	-44.868351	-32.188305
1032.116577	-30.013582	-18.548018	-44.604805
1032.477417	-55.842140	-23.016739	-57.024075
1032.838257	-84.664284	-52.816338	-47.088478
1033.199097	-56.339069	-6.137161	-20.270788
1033.559937	-19.089594	-36.921173	-36.161442
1033.920654	-60.313576	-49.338810	-45.598206
1034.281128	-54.848564	-28.975475	-25.236172
1034.641724	-32.496635	-19.541113	-26.229246
1035.002197	-37.463051	-32.451527	-20.270788
1035.362671	-37.959553	15.700212	-29.705269
1035.722900	6.722675	-33.444721	-38.147976
1036.083252	-10.649762	-16.562149	-53.546432
1036.443481	-56.338932	-60.765411	-28.712002
1036.803711	-32.496635	-40.894627	-29.705269
1037.163940	-12.139009	-9.611861	-22.753429
1037.523804	-92.617844	-40.894627	-45.598206
1037.883789	-59.816879	-27.982222	-54.043205
1038.243774	-49.880672	-40.894627	-32.684898
1038.603638	-39.946285	-17.555075	-20.270924
1038.963257	-34.483177	-30.465052	-68.948814
1039.323120	-45.410034	-24.009640	-30.698416
1039.682861	-61.804218	7.760270	-31.691717
>>>>>End Processed Spectral Data<<<<<
