Jaz Data File
++++++++++++++++++++++++++++++++++++
Date: Wed Dec 03 21:27:32 2014
User: jaz
Dark Spectrum Present: Yes
Reference Spectrum Present: Yes
Processed Spectrum Present: No
Spectrometers: JAZA2310
Integration Time (usec): 36000 (JAZA2310)
Spectra Averaged: 1 (JAZA2310)
Boxcar Smoothing: 0 (JAZA2310)
Correct for Electrical Dark: Yes (JAZA2310)
Strobe/Lamp Enabled: No (JAZA2310)
Correct for Detector Non-linearity: Yes (JAZA2310)
Correct for Stray Light: No (JAZA2310)
Number of Pixels in Processed Spectrum: 2048
>>>>>Begin Processed Spectral Data<<<<<
W	D	R	S
188.301102	0.000000	0.000000	0.000000
188.764923	0.000000	0.000000	0.000000
189.228699	-50.851192	-7.558390	-40.932041
189.692459	-18.570162	-39.833500	-21.067987
190.156158	11.212086	-62.188099	-33.482265
190.619812	-11.123223	-57.219715	-6.174419
191.083435	-1.195390	-15.005013	21.120785
191.547043	-3.677091	81.726685	21.120785
192.010590	6.249354	4.850288	-40.932041
192.474091	28.578102	-0.112843	-26.033302
192.937561	110.378319	17.256495	-65.771530
193.401001	38.499279	37.100838	38.483898
193.864410	-58.303181	22.218170	-18.585419
194.327759	13.693295	17.256495	23.601580
194.791077	78.167336	37.100838	18.639885
195.254349	40.979210	42.060989	31.043207
195.717575	-3.677091	22.218170	88.064919
196.180786	-1.195390	7.331765	13.677911
196.643951	-38.433235	-12.522700	-53.350399
197.107071	16.174267	59.417999	1.270953
197.570145	-8.641074	-67.156906	-21.067987
198.033203	-58.303181	-32.383865	16.159018
198.496216	13.693295	-29.900818	-60.802704
198.959167	-1.195390	-24.935040	18.639885
199.422089	-28.500927	22.218170	-28.516186
199.884979	8.730772	22.218170	-28.516186
200.347855	-26.018044	12.294271	-53.350399
200.810654	-65.756126	-0.112843	18.639885
201.273422	-55.819035	-19.969816	-73.225426
201.736160	-6.159030	4.850288	18.639885
202.198853	-40.916641	22.218170	31.043207
202.661514	-8.641074	-17.487295	-26.033302
203.124130	3.767967	-54.735619	-53.350399
203.586700	3.767967	-49.767868	-33.482265
204.049240	-55.819035	-92.007721	-35.965332
204.511734	-6.159030	-89.522133	-18.585419
204.974197	-58.303181	-84.551277	-48.382767
205.436615	18.655268	-82.066147	-53.350399
205.899002	-73.210014	-94.493279	-16.103090
206.361343	-30.983778	-24.935040	-43.415421
206.823654	-23.535265	37.100838	-11.138478
207.285919	-90.606194	-7.558390	-58.318584
207.748123	-26.018044	-34.866882	-80.680275
208.210327	-110.493988	-141.741119	-35.965332
208.672485	-18.570162	-34.866882	-16.103090
209.134583	8.730772	-72.126274	-21.067987
209.596649	-33.466869	-39.833500	-70.740639
210.058670	-40.916641	-5.076527	16.159018
210.520676	-11.123223	-52.251621	-88.136078
210.982635	-55.819035	-44.800404	68.237389
211.444534	-70.725372	2.368707	16.159018
211.906403	-65.756126	-32.383865	-21.067987
212.368240	-58.303181	-17.487295	-40.932041
212.830048	-16.087700	-72.126274	-26.033302
213.291779	-40.916641	-32.383865	-75.710312
213.753494	-115.466934	-49.767868	28.562721
214.215179	6.249354	-59.703789	-65.771530
214.676819	-48.367363	-87.036652	-3.692479
215.138412	-18.570162	-0.112843	11.196701
215.599960	-48.367363	-12.522700	-70.740639
216.061493	-35.950069	14.775435	-26.033302
216.522949	-53.335133	32.140408	-53.350399
216.984406	-88.120804	-89.522133	-103.050575
217.445801	-63.271660	-34.866882	-58.318584
217.907166	-75.694908	-89.522133	-40.932041
218.368484	-45.883778	-74.611115	-18.585419
218.829773	-65.756126	-57.219715	-28.516186
219.291031	-85.635391	-104.436981	-43.415421
219.752228	-8.641074	-2.594633	-8.656464
220.213379	-40.916641	-126.816483	-60.802704
220.674500	6.249354	-77.095932	-18.585419
221.135574	-55.819035	-109.409546	-8.656464
221.596634	-11.123223	-22.452444	11.196701
222.057648	70.731590	-52.251621	-30.999174
222.518600	6.249354	-79.580978	-3.692479
222.979553	31.058451	-24.935040	-33.482265
223.440430	3.767967	-64.672516	-40.932041
223.901276	-55.819035	-39.833500	-50.866596
224.362076	23.616825	-62.188099	3.752580
224.822845	-33.466869	-52.251621	-53.350399
225.283569	16.174267	-57.219715	-35.965332
225.744278	-167.709503	-79.580978	-95.592850
226.204910	-48.367363	-44.800404	-55.834438
226.665512	-75.694908	-89.522133	26.082134
227.126114	16.174267	-42.316833	-18.585419
227.586639	-3.677091	-17.487295	26.082134
228.047119	-16.087700	-92.007721	-38.448631
228.507568	-40.916641	-19.969816	-65.771530
228.967972	26.097515	-99.464981	-18.585419
229.428345	-18.570162	-84.551277	-23.550659
229.888687	8.730772	-139.253387	18.639885
230.348984	3.767967	17.256495	-1.210643
230.809219	-85.635391	-17.487295	-13.620732
231.269440	-50.851192	-17.487295	-23.550659
231.729614	-23.535265	39.580967	-28.516186
232.189758	-70.725372	-5.076527	-112.995758
232.649841	-58.303181	-42.316833	-63.287064
233.109894	-95.577576	27.179428	-16.103090
233.569901	-70.725372	-2.594633	-26.033302
234.029892	-13.605341	-19.969816	-55.834438
234.489822	-40.916641	4.850288	-35.965332
234.949707	21.136166	-17.487295	-43.415421
235.409561	-38.433235	-89.522133	-28.516186
235.869385	-16.087700	-59.703789	-63.287064
236.329163	-28.500927	-49.767868	-68.256104
236.788895	-90.606194	-44.800404	-65.771530
237.248581	-23.535265	42.060989	-122.942650
237.708237	-13.605341	-37.350140	-13.620732
238.167847	63.294918	-47.284084	-45.899040
238.627441	21.136166	-12.522700	13.677911
239.086960	33.538830	-57.219715	-108.023018
239.546463	-6.159030	-101.950867	-30.999174
240.005920	-30.983778	-101.950867	-33.482265
240.465332	-13.605341	-32.383865	26.082134
240.924698	45.939041	-94.493279	-70.740639
241.384033	36.019108	24.698919	-16.103090
241.843338	-38.433235	-101.950867	-28.516186
242.302597	-65.756126	-67.156906	-13.620732
242.761810	-21.052593	-77.095932	-30.999174
243.220993	6.249354	-79.580978	26.082134
243.680115	-8.641074	-15.005013	90.542931
244.139221	-137.850861	-17.487295	26.082134
244.598282	-70.725372	-39.833500	-65.771530
245.057297	58.336536	-44.800404	-43.415421
245.516266	-45.883778	-44.800404	-75.710312
245.975189	-135.363297	-82.066147	33.523586
246.434082	-50.851192	-19.969816	-48.382767
246.892944	-3.677091	-24.935040	-6.174419
247.351761	-33.466869	-77.095932	-3.692479
247.810516	-78.179901	2.368707	-63.287064
248.269272	-3.677091	-42.316833	-95.592850
248.727951	-45.883778	-47.284084	16.159018
249.186600	-55.819035	-32.383865	-8.656464
249.645218	-70.725372	-7.558390	-53.350399
250.103790	-93.091835	-19.969816	-38.448631
250.562317	-28.500927	-10.040493	33.523586
251.020813	-38.433235	-77.095932	-1.210643
251.479279	-28.500927	-52.251621	-6.174419
251.937668	45.939041	-59.703789	8.715386
252.396057	-1.195390	-34.866882	8.715386
252.854385	-83.150078	-62.188099	-3.692479
253.312683	-63.271660	37.100838	-33.482265
253.770920	-48.367363	-34.866882	13.677911
254.229126	-28.500927	-49.767868	-23.550659
254.687302	-21.052593	-37.350140	-18.585419
255.145432	-18.570162	-106.923210	-48.382767
255.603500	-33.466869	32.140408	-50.866596
256.061584	6.249354	-62.188099	-60.802704
256.519592	-53.335133	42.060989	-40.932041
256.977570	-45.883778	-54.735619	-21.067987
257.435455	28.578102	-82.066147	-98.078697
257.893372	-60.787434	-15.005013	36.003727
258.351196	-53.335133	-89.522133	-23.550659
258.808990	-48.367363	-10.040493	-58.318584
259.266754	-70.725372	-111.895851	-38.448631
259.724487	-55.819035	-101.950867	26.082134
260.182190	-43.400158	-131.790985	-60.802704
260.639832	-28.500927	-74.611115	-11.138478
261.097443	-28.500927	-59.703789	-73.225426
261.554993	-75.694908	-37.350140	-21.067987
262.012512	-40.916641	2.368707	-21.067987
262.469971	-13.605341	-54.735619	-40.932041
262.927429	-6.159030	-12.522700	-13.620732
263.384827	-11.123223	-39.833500	-65.771530
263.842194	-11.123223	-42.316833	-23.550659
264.299530	-85.635391	-0.112843	-30.999174
264.756805	-60.787434	-52.251621	26.082134
265.214050	-75.694908	-39.833500	-58.318584
265.671234	-58.303181	-24.935040	-50.866596
266.128387	-63.271660	-22.452444	-35.965332
266.585510	-23.535265	2.368707	-21.067987
267.042572	-8.641074	24.698919	-16.103090
267.499573	-8.641074	-10.040493	-98.078697
267.956604	21.136166	-37.350140	-11.138478
268.413574	6.249354	-54.735619	36.003727
268.870483	-48.367363	7.331765	26.082134
269.327362	-63.271660	-62.188099	-8.656464
269.784180	-75.694908	-7.558390	-38.448631
270.240936	-75.694908	-72.126274	-35.965332
270.697693	-40.916641	-67.156906	16.159018
271.154419	-70.725372	-42.316833	-23.550659
271.611053	-33.466869	-52.251621	-11.138478
272.067688	-147.802048	-32.383865	-70.740639
272.524292	-58.303181	9.813137	-13.620732
272.980835	-45.883778	-77.095932	-68.256104
273.437347	-78.179901	-49.767868	48.403423
273.893799	3.767967	-32.383865	-28.516186
274.350250	6.249354	19.737318	16.159018
274.806610	-40.916641	4.850288	-53.350399
275.262939	-11.123223	-94.493279	-70.740639
275.719238	-45.883778	-37.350140	-63.287064
276.175507	-53.335133	-42.316833	-16.103090
276.631714	-33.466869	-62.188099	-21.067987
277.087891	-33.466869	-2.594633	-6.174419
277.544067	-45.883778	-54.735619	13.677911
278.000122	-100.549232	-84.551277	-68.256104
278.456177	-26.018044	-119.355682	-1.210643
278.912201	8.730772	-12.522700	-58.318584
279.368164	-70.725372	-99.464981	-48.382767
279.824097	-120.440453	-67.156906	-38.448631
280.279968	-78.179901	-92.007721	-35.965332
280.735840	-55.819035	-22.452444	-23.550659
281.191620	-11.123223	12.294271	-40.932041
281.647400	-28.500927	-52.251621	-6.174419
282.103149	-65.756126	-2.594633	-1.210643
282.558838	-83.150078	-54.735619	48.403423
283.014465	-3.677091	29.659971	-35.965332
283.470062	6.249354	-62.188099	11.196701
283.925629	-18.570162	-47.284084	-11.138478
284.381134	-68.240692	-24.935040	-70.740639
284.836639	-53.335133	-111.895851	-55.834438
285.292053	-11.123223	17.256495	21.120785
285.747467	23.616825	-47.284084	-3.692479
286.202820	-63.271660	27.179428	-21.067987
286.658142	-50.851192	-0.112843	-3.692479
287.113434	-78.179901	-17.487295	-35.965332
287.568634	-88.120804	24.698919	-43.415421
288.023804	-78.179901	-5.076527	-85.650803
288.478973	-6.159030	-22.452444	-68.256104
288.934113	-85.635391	-64.672516	-45.899040
289.389130	-83.150078	-69.641533	-127.916809
289.844208	-55.819035	-27.417875	8.715386
290.299164	-38.433235	-44.800404	3.752580
290.754089	-122.927231	-79.580978	3.752580
291.208984	-28.500927	-19.969816	-18.585419
291.663879	-1.195390	-54.735619	13.677911
292.118683	53.377872	-87.036652	8.715386
292.573456	6.249354	19.737318	-43.415421
293.028198	-58.303181	-57.219715	-26.033302
293.482849	33.538830	-0.112843	-8.656464
293.937561	8.730772	19.737318	-43.415421
294.392151	43.459179	-89.522133	-53.350399
294.846741	-40.916641	-24.935040	-43.415421
295.301239	28.578102	-49.767868	-35.965332
295.755737	-33.466869	-79.580978	-53.350399
296.210175	-48.367363	-32.383865	-16.103090
296.664581	-18.570162	-87.036652	-60.802704
297.118958	-117.953644	-49.767868	-21.067987
297.573242	-45.883778	-15.005013	-26.033302
298.027557	1.286340	-77.095932	-90.621613
298.481812	21.136166	-24.935040	-28.516186
298.935974	38.499279	-104.436981	-6.174419
299.390137	-78.179901	-44.800404	21.120785
299.844238	-105.521469	9.813137	85.586800
300.298340	-35.950069	-10.040493	-18.585419
300.752350	-78.179901	-15.005013	-58.318584
301.206360	-8.641074	-24.935040	-21.067987
301.660278	-35.950069	-96.979080	-26.033302
302.114197	-6.159030	-19.969816	-23.550659
302.568054	-35.950069	-96.979080	-63.287064
303.021881	-23.535265	-74.611115	-117.969063
303.475677	3.767967	-2.594633	-45.899040
303.929413	-13.605341	-44.800404	18.639885
304.383118	-1.195390	-52.251621	8.715386
304.836761	-28.500927	-99.464981	-28.516186
305.290375	-28.500927	-92.007721	-55.834438
305.743958	-43.400158	-19.969816	-105.536751
306.197510	-33.466869	22.218170	-63.287064
306.650970	-26.018044	12.294271	6.234103
307.104431	-30.983778	-22.452444	-50.866596
307.557800	26.097515	-101.950867	-58.318584
308.011169	-55.819035	-84.551277	-48.382767
308.464508	3.767967	-22.452444	8.715386
308.917755	-55.819035	-77.095932	-13.620732
309.371063	-70.725372	-34.866882	-65.771530
309.824219	-3.677091	-84.551277	1.270953
310.277374	-65.756126	-99.464981	-125.429680
310.730499	13.693295	24.698919	-3.692479
311.183563	-3.677091	-52.251621	28.562721
311.636597	11.212086	-32.383865	-43.415421
312.089569	-3.677091	-57.219715	-60.802704
312.542511	-1.195390	-12.522700	13.677911
312.995422	-21.052593	-52.251621	-53.350399
313.448273	-40.916641	-69.641533	-117.969063
313.901093	28.578102	-54.735619	-53.350399
314.353882	33.538830	-34.866882	-85.650803
314.806580	-80.664864	19.737318	-11.138478
315.259308	-70.725372	17.256495	1.270953
315.711975	11.212086	-2.594633	-6.174419
316.164581	-70.725372	-77.095932	-40.932041
316.617126	36.019108	-24.935040	6.234103
317.069672	3.767967	-44.800404	1.270953
317.522156	50.898319	-62.188099	-8.656464
317.974579	-6.159030	-32.383865	88.064919
318.427002	1.286340	24.698919	-26.033302
318.879333	-30.983778	-57.219715	-73.225426
319.331665	3.767967	-57.219715	-43.415421
319.783936	-45.883778	-5.076527	-33.482265
320.236176	-68.240692	-7.558390	-33.482265
320.688354	18.655268	-29.900818	-80.680275
321.140503	-68.240692	-37.350140	-63.287064
321.592651	-28.500927	-0.112843	-26.033302
322.044647	3.767967	-111.895851	31.043207
322.496704	-53.335133	-37.350140	-68.256104
322.948639	-30.983778	12.294271	13.677911
323.400604	-35.950069	-34.866882	-137.866150
323.852509	-18.570162	-64.672516	-3.692479
324.304352	-28.500927	-37.350140	26.082134
324.756165	-16.087700	-34.866882	-98.078697
325.207916	-33.466869	-47.284084	-8.656464
325.659668	-13.605341	-2.594633	-48.382767
326.111328	-16.087700	-64.672516	1.270953
326.562988	-95.577576	-12.522700	-55.834438
327.014557	-1.195390	7.331765	-50.866596
327.466156	23.616825	-109.409546	-68.256104
327.917664	-63.271660	-124.329529	-35.965332
328.369110	-85.635391	-15.005013	-11.138478
328.820557	80.645767	-7.558390	1.270953
329.271942	-26.018044	2.368707	-88.136078
329.723297	55.857323	-24.935040	-70.740639
330.174561	-26.018044	-64.672516	-18.585419
330.625854	-30.983778	4.850288	-117.969063
331.077026	8.730772	34.620743	-48.382767
331.528229	-60.787434	-17.487295	-53.350399
331.979370	-3.677091	-19.969816	-85.650803
332.430450	-13.605341	-42.316833	-16.103090
332.881500	-63.271660	12.294271	-58.318584
333.332489	-78.179901	-27.417875	-80.680275
333.783478	-8.641074	-37.350140	3.752580
334.234406	-28.500927	-52.251621	40.963970
334.685303	-43.400158	-72.126274	-1.210643
335.136078	-38.433235	-64.672516	-26.033302
335.586914	-50.851192	-74.611115	-6.174419
336.037659	13.693295	44.540775	26.082134
336.488342	-90.606194	44.540775	-50.866596
336.939026	40.979210	-19.969816	-6.174419
337.389648	40.979210	-44.800404	-45.899040
337.840240	13.693295	69.334038	6.234103
338.290771	-78.179901	-22.452444	26.082134
338.741272	-85.635391	-29.900818	-1.210643
339.191681	-38.433235	-0.112843	33.523586
339.642120	-53.335133	2.368707	-6.174419
340.092468	40.979210	-44.800404	58.321297
340.542816	-18.570162	42.060989	1.270953
340.993103	-70.725372	14.775435	-8.656464
341.443329	-13.605341	2.368707	13.677911
341.893555	-53.335133	81.726685	-21.067987
342.343689	-48.367363	-2.594633	31.043207
342.793793	26.097515	49.500305	11.196701
343.243866	-1.195390	-10.040493	18.639885
343.693878	3.767967	2.368707	-21.067987
344.143890	-11.123223	9.813137	28.562721
344.593842	-65.756126	136.224396	-1.210643
345.043732	-23.535265	74.291382	-30.999174
345.493591	-55.819035	7.331765	16.159018
345.943359	-21.052593	59.417999	-53.350399
346.393158	-55.819035	84.204964	-40.932041
346.842896	1.286340	69.334038	-16.103090
347.292542	-13.605341	126.319366	31.043207
347.742218	-28.500927	44.540775	53.362499
348.191803	40.979210	96.594536	11.196701
348.641357	-50.851192	22.218170	107.885895
349.090881	-40.916641	111.458847	36.003727
349.540314	-55.819035	84.204964	58.321297
349.989777	-18.570162	193.146866	115.317055
350.439148	-55.819035	262.372711	206.893478
350.888489	-16.087700	582.788574	234.092529
351.337799	-53.335133	960.367188	692.250305
351.787048	-60.787434	1552.148315	829.571228
352.236267	-50.851192	2081.677979	1008.172363
352.685425	-80.664864	2252.637939	1083.880981
353.134552	-40.916641	2146.730713	1030.160400
353.583649	-58.303181	1818.548950	814.871460
354.032684	-135.363297	1323.781616	623.485474
354.481659	-53.335133	894.317383	539.889771
354.930634	-63.271660	717.877747	421.690277
355.379517	-50.851192	668.785889	276.103912
355.828430	75.688812	415.386169	310.680298
356.277222	-11.123223	449.886719	258.808533
356.726013	-30.983778	437.567322	167.309769
357.174774	8.730772	375.934174	258.808533
357.623444	-50.851192	412.921112	145.032547
358.072113	-16.087700	361.133423	241.508362
358.520721	-13.605341	457.277130	182.156647
358.969299	-43.400158	348.796875	187.104752
359.417786	-18.570162	375.934174	157.409805
359.866302	-120.440453	427.709869	137.605042
360.314697	-48.367363	375.934174	281.044647
360.763123	-115.466934	440.031158	187.104752
361.211456	-88.120804	422.780579	226.675827
361.659760	-45.883778	373.467590	182.156647
362.108032	-50.851192	383.333374	167.309769
362.556244	-30.983778	356.198975	149.983810
363.004456	6.249354	341.393646	204.420197
363.452576	-8.641074	417.851166	303.272583
363.900696	8.730772	454.813934	384.708679
364.348663	-90.606194	710.516113	537.429688
364.796722	-38.433235	1304.314697	601.367676
365.244690	-13.605341	1775.016235	756.040955
365.692596	-93.091835	1864.475098	746.230774
366.140472	16.174267	1447.766357	746.230774
366.588287	-8.641074	945.694519	562.028442
367.036102	63.294918	749.768372	335.366150
367.483826	1.286340	479.443848	281.044647
367.931549	-88.120804	427.709869	256.337341
368.379181	-35.950069	378.400665	268.692230
368.826843	-45.883778	383.333374	224.203339
369.274384	-35.950069	452.350372	229.148209
369.721924	-70.725372	425.245270	281.044647
370.169403	-68.240692	474.518494	206.893478
370.616821	-60.787434	479.443848	219.258209
371.064270	-58.303181	435.103088	313.149353
371.511566	-85.635391	417.851166	256.337341
371.958923	-68.240692	449.886719	229.148209
372.406158	-93.091835	501.602966	231.620346
372.853424	36.019108	447.422974	283.514862
373.300568	3.767967	511.448914	229.148209
373.747711	-103.035301	494.217346	221.730774
374.194794	-28.500927	521.293640	330.429718
374.641846	-80.664864	631.943420	401.969543
375.088898	-75.694908	617.200806	401.969543
375.535828	18.655268	820.855652	470.966522
375.982758	-60.787434	1033.683594	711.884583
376.429596	6.249354	1311.615601	790.364929
376.876465	-38.433235	1949.009521	1222.882568
377.323242	-21.052593	2454.471924	1315.405762
377.769989	-55.819035	2856.804443	1686.809448
378.216675	-35.950069	2933.243652	1669.855347
378.663330	38.499279	2880.698242	1677.121826
379.109985	28.578102	2763.560059	1497.687256
379.556519	-38.433235	2401.655029	1227.755249
380.003052	33.538830	1922.450928	1118.046143
380.449524	-83.150078	1396.738403	709.430542
380.895996	-85.635391	1138.640991	711.884583
381.342377	-105.521469	847.800415	453.724213
381.788727	16.174267	641.770203	337.833984
382.235046	-40.916641	550.818359	332.897980
382.681274	-60.787434	491.755280	266.221405
383.127533	-35.950069	496.679321	206.893478
383.573669	-28.500927	508.987518	273.633392
384.019836	-112.980476	440.031158	234.092529
384.465912	-73.210014	417.851166	196.999893
384.911957	3.767967	398.128967	224.203339
385.357971	-50.851192	435.103088	256.337341
385.803925	-33.466869	385.799591	293.394501
386.249847	-55.819035	479.443848	187.104752
386.695679	-35.950069	380.867065	229.148209
387.141541	-35.950069	508.987518	206.893478
387.587311	13.693295	479.443848	310.680298
388.033051	-45.883778	422.780579	243.980164
388.478729	38.499279	489.293396	231.620346
388.924408	-1.195390	442.495209	268.692230
389.369995	-18.570162	432.638794	209.366653
389.815552	-53.335133	395.663208	330.429718
390.261078	-120.440453	484.368805	248.923294
390.706543	-43.400158	444.959137	276.103912
391.152008	-73.210014	454.813934	224.203339
391.597351	-1.195390	533.597168	271.162933
392.042725	-11.123223	496.679321	335.366150
392.487976	-95.577576	444.959137	352.640137
392.933289	-58.303181	469.593048	308.211151
393.378479	-35.950069	474.518494	293.394501
393.823639	-55.819035	462.203766	298.333862
394.268768	-43.400158	484.368805	308.211151
394.713837	-30.983778	558.197327	325.492859
395.158905	18.655268	587.705750	332.897980
395.603851	-6.159030	533.597168	332.897980
396.048798	-45.883778	449.886719	350.172913
396.493683	-60.787434	553.278198	221.730774
396.938568	-73.210014	494.217346	424.155029
397.383392	-63.271660	558.197327	369.909729
397.828156	-45.883778	582.788574	372.376465
398.272888	-95.577576	661.418945	305.741913
398.717560	-63.271660	614.743347	362.509216
399.162201	-78.179901	624.572693	355.107574
399.606781	-35.950069	575.412109	320.555634
400.051361	-21.052593	607.370667	266.221405
400.495819	-100.549232	555.737915	414.295776
400.940308	-30.983778	582.788574	374.843109
401.384705	-30.983778	526.215149	384.708679
401.829102	-26.018044	580.329834	409.365479
402.273438	-38.433235	639.313660	374.843109
402.717682	6.249354	592.622314	308.211151
403.161926	1.286340	609.828186	409.365479
403.606110	-16.087700	597.538818	525.126587
404.050293	-26.018044	1011.696716	726.606445
404.494385	-45.883778	1404.030029	863.858765
404.938446	-50.851192	1484.194702	907.917969
405.382477	-58.303181	1379.721436	741.325439
405.826447	-112.980476	994.590942	760.945251
406.270386	-65.756126	776.741272	571.865540
406.714233	-21.052593	673.696777	522.665710
407.158081	36.019108	695.790710	441.405243
407.601868	-63.271660	737.504517	554.649902
408.045624	-26.018044	818.405518	512.821472
408.489319	-1.195390	933.465271	613.656250
408.933014	3.767967	1097.164185	898.129333
409.376617	-28.500927	1731.459961	1359.192993
409.820190	-43.400158	3195.546387	2184.192383
410.263702	-13.605341	5146.834473	3137.322754
410.707184	-70.725372	6343.074219	3736.003662
411.150635	-68.240692	6479.639648	3726.527588
411.594025	-55.819035	5604.389160	3600.893311
412.037384	-23.535265	4922.075195	3204.018311
412.480682	38.499279	4240.416016	2700.287598
412.923981	-75.694908	3514.146484	2458.210449
413.367126	-53.335133	2823.342529	1868.239014
413.810333	-26.018044	2173.219727	1434.545288
414.253479	8.730772	1612.771851	1147.317749
414.696533	-13.605341	1136.201782	856.512939
415.139587	6.249354	948.140198	692.250305
415.582581	-33.466869	811.054688	537.429688
416.025543	23.616825	636.856995	510.360138
416.468414	-35.950069	634.400269	401.969543
416.911285	-40.916641	644.226379	409.365479
417.354065	-40.916641	622.115479	414.295776
417.796875	-6.159030	681.062134	369.909729
418.239594	-16.087700	479.443848	347.705322
418.682281	-95.577576	587.705750	377.309631
419.124908	-65.756126	528.675903	290.924683
419.567505	73.210320	617.200806	389.640656
420.010071	-26.018044	531.136597	387.174591
420.452545	-68.240692	627.029541	347.705322
420.895020	-30.983778	565.575745	335.366150
421.337372	-63.271660	538.518066	399.503967
421.779785	-53.335133	555.737915	342.769836
422.222107	-48.367363	506.526245	303.272583
422.664368	-78.179901	516.371460	382.242432
423.106628	-90.606194	548.358398	360.042084
423.548798	-30.983778	649.139099	369.909729
423.990967	-23.535265	658.963074	360.042084
424.433044	-8.641074	624.572693	409.365479
424.875092	-50.851192	516.371460	463.577393
425.317078	-68.240692	617.200806	392.106598
425.759064	-8.641074	634.400269	414.295776
426.200989	-55.819035	695.790710	374.843109
426.642853	-40.916641	631.943420	387.174591
427.084686	-60.787434	712.970032	409.365479
427.526459	-6.159030	550.818359	392.106598
427.968201	23.616825	619.658203	293.394501
428.409912	-48.367363	720.331421	424.155029
428.851563	11.212086	705.608215	510.360138
429.293121	-115.466934	710.516113	512.821472
429.734711	-108.007599	749.768372	443.869202
430.176239	1.286340	649.139099	436.477264
430.617706	-8.641074	666.330322	379.776093
431.059113	-68.240692	698.245239	438.941162
431.500488	-43.400158	683.517151	463.577393
431.941833	-55.819035	676.151794	478.354523
432.383087	-35.950069	614.743347	429.084198
432.824341	-58.303181	725.238525	424.155029
433.265533	-1.195390	688.427002	456.187439
433.706726	-43.400158	717.877747	360.042084
434.147827	-95.577576	757.125732	515.282776
434.588867	-68.240692	882.078918	655.421021
435.029877	-3.677091	1187.406982	1032.603149
435.470825	8.730772	2420.864746	1529.239258
435.911804	-73.210014	3483.281006	1868.239014
436.352661	13.693295	3409.642090	1875.488159
436.793518	-117.953644	2464.072021	1580.180542
437.234283	-45.883778	1975.560059	1310.539063
437.675049	-13.605341	1649.123535	1147.317749
438.115723	31.058451	1184.969360	849.166199
438.556396	-21.052593	1060.547729	790.364929
438.997040	-45.883778	1119.125488	733.966370
439.437561	-38.433235	1028.798340	670.155212
439.878113	-28.500927	1206.904297	667.699707
440.318573	-21.052593	1028.798340	716.792297
440.759033	-40.916641	1075.196655	751.136047
441.199341	-40.916641	1172.780518	726.606445
441.639709	-40.916641	1126.444458	773.205078
442.079956	6.249354	1138.640991	795.266785
442.520264	-68.240692	1202.030396	846.717102
442.960510	38.499279	1194.719116	773.205078
443.400604	28.578102	1233.704712	778.108154
443.840759	-53.335133	1316.482056	851.615234
444.280762	1.286340	1282.408325	858.961731
444.720825	-53.335133	1170.342529	753.588562
445.160767	-45.883778	1099.604614	809.970703
445.600739	-90.606194	1153.274170	814.871460
446.040558	-18.570162	1141.080078	849.166199
446.480438	-93.091835	1131.323120	699.613953
446.920258	-90.606194	1209.341187	839.369568
447.359955	-1.195390	1233.704712	729.059875
447.799713	3.767967	1262.930908	729.059875
448.239319	-8.641074	1199.593262	863.858765
448.678955	58.336536	1389.445679	927.490784
449.118500	-65.756126	1663.659912	1174.140137
449.558014	-28.500927	2074.447021	1529.239258
449.997498	-68.240692	3090.709961	2292.458984
450.436951	8.730772	5867.390625	4069.482910
450.876343	45.939041	10570.519531	6656.624023
451.315674	-73.210014	15486.738281	9227.665039
451.754974	-80.664864	18438.767578	10600.955078
452.194183	-50.851192	18021.242188	10578.506836
452.633392	-48.367363	15993.146484	10119.843750
453.072510	-33.466869	14227.466797	9025.867188
453.511688	-28.500927	12223.409180	8110.670898
453.950684	-88.120804	10420.025391	7262.741211
454.389740	-53.335133	8599.638672	5894.258301
454.828735	-58.303181	6904.587402	4665.308594
455.267639	-75.694908	5125.781738	3653.062012
455.706543	36.019108	3758.368408	2822.285400
456.145325	-43.400158	2837.684570	2080.611816
456.584137	-70.725372	2062.393799	1512.251465
457.022858	-6.159030	1622.467285	1205.826294
457.461578	-38.433235	1340.811157	817.321716
457.900208	16.174267	1163.028076	871.203979
458.338867	-16.087700	1072.755249	699.613953
458.777405	-63.271660	967.702087	623.485474
459.215912	-38.433235	938.357300	586.618225
459.654388	-33.466869	972.591736	608.741028
460.092773	-58.303181	806.153992	488.203949
460.531189	-90.606194	803.703369	566.947205
460.969513	-68.240692	764.482056	485.741943
461.407806	-33.466869	710.516113	480.817078
461.846008	-45.883778	641.770203	475.891876
462.284241	13.693295	656.507385	470.966522
462.722351	-3.677091	614.743347	475.891876
463.160461	-68.240692	803.703369	488.203949
463.598541	6.249354	656.507385	468.503571
464.036530	-43.400158	612.285767	436.477264
464.474518	-26.018044	725.238525	421.690277
464.912384	-3.677091	705.608215	389.640656
465.350281	-35.950069	693.336182	547.270264
465.788086	-8.641074	825.755554	510.360138
466.225891	43.459179	1038.568848	633.313538
466.663605	-38.433235	1262.930908	738.872498
467.101318	-50.851192	1323.781616	807.520508
467.539001	-40.916641	1360.268799	817.321716
467.976563	26.097515	1304.314697	800.168518
468.414124	-30.983778	1070.313843	694.704956
468.851593	21.136166	945.694519	657.876709
469.289063	-43.400158	960.367188	652.964966
469.726440	-63.271660	911.447327	515.282776
470.163849	11.212086	813.505066	591.534912
470.601135	-11.123223	889.422302	613.656250
471.038422	-120.440453	823.305603	507.898651
471.475677	-21.052593	766.934082	569.406433
471.912811	-23.535265	759.578064	434.013000
472.350006	43.459179	788.998047	443.869202
472.787048	-53.335133	855.147400	419.225708
473.224121	-33.466869	752.220947	453.724213
473.661072	36.019108	752.220947	490.666168
474.098053	8.730772	752.220947	475.891876
474.534943	-13.605341	744.863037	571.865540
474.971802	1.286340	943.249084	593.993225
475.408630	-28.500927	1053.222168	633.313538
475.845367	-33.466869	1099.604614	596.451477
476.282104	-60.787434	860.044922	672.610657
476.718750	6.249354	793.900024	564.487854
477.155426	-65.756126	872.286926	549.730225
477.591949	31.058451	742.410461	537.429688
478.028503	-55.819035	710.516113	490.666168
478.464966	-65.756126	764.482056	532.508728
478.901428	-23.535265	744.863037	539.889771
479.337860	21.136166	867.390259	483.279541
479.774170	-53.335133	835.554077	438.941162
480.210510	13.693295	757.125732	483.279541
480.646698	-38.433235	722.785034	451.260590
481.082947	1.286340	771.837830	576.783325
481.519073	-38.433235	867.390259	557.109314
481.955200	-33.466869	781.644104	564.487854
482.391266	-35.950069	921.233948	537.429688
482.827301	-73.210014	811.054688	542.350037
483.263306	-50.851192	860.044922	576.783325
483.699188	8.730772	779.192566	480.817078
484.135101	-60.787434	833.104553	547.270264
484.570923	-23.535265	909.000488	498.052216
485.006744	11.212086	955.476624	554.649902
485.442413	-48.367363	972.591736	606.283447
485.878174	-73.210014	940.803223	608.741028
486.313782	-95.577576	928.572876	574.324341
486.749390	-38.433235	975.036438	525.126587
487.184998	-70.725372	975.036438	554.649902
487.620453	-105.521469	904.106384	684.886169
488.055939	-53.335133	1001.922302	731.513123
488.491333	-55.819035	916.340698	682.431213
488.926727	-68.240692	982.369812	682.431213
489.362030	13.693295	1084.960815	611.198669
489.797302	-45.883778	1060.547729	721.699707
490.232513	-58.303181	1087.401733	736.419434
490.667755	-13.605341	989.702698	662.788391
491.102905	-11.123223	1087.401733	694.704956
491.537964	-6.159030	1060.547729	743.778015
491.973022	-21.052593	1194.719116	763.397400
492.407990	-23.535265	1075.196655	768.301453
492.842957	-35.950069	1121.565186	706.976746
493.277832	-103.035301	1067.872437	716.792297
493.712738	-38.433235	1082.519775	684.886169
494.147491	13.693295	1114.245728	679.976135
494.582275	-38.433235	1092.283325	692.250305
495.017029	-30.983778	1131.323120	738.872498
495.451660	-6.159030	1199.593262	783.011108
495.886292	-45.883778	1097.164185	733.966370
496.320831	-60.787434	1321.348633	971.510315
496.755402	48.418663	1588.527954	1081.439941
497.189850	-85.635391	2190.072266	1478.264648
497.624298	-35.950069	3333.571289	2241.951172
498.058655	-33.466869	5095.365234	2812.722412
498.493042	-80.664864	5643.992676	3156.383057
498.927368	-50.851192	5324.463379	3041.964844
499.361572	60.815777	4056.357666	2542.171143
499.795807	-58.303181	3321.680176	2061.327148
500.229919	-28.500927	2725.279541	1860.989746
500.664063	-43.400158	2271.880371	1504.969727
501.098083	-58.303181	1743.561401	1281.331543
501.532104	3.767967	1416.181519	1042.373291
501.966064	-100.549232	1335.945923	876.100342
502.399994	-26.018044	1223.960327	822.221863
502.833893	-45.883778	1155.712769	795.266785
503.267700	-28.500927	1265.365601	834.470581
503.701477	-40.916641	1148.396606	802.619324
504.135193	-70.725372	1106.925659	773.205078
504.568909	16.174267	1136.201782	751.136047
505.002502	-18.570162	1060.547729	773.205078
505.436127	-117.953644	1133.762573	692.250305
505.869629	28.578102	1102.045166	805.070007
506.303162	-93.091835	1109.365845	726.606445
506.736603	-90.606194	1033.683594	741.325439
507.169983	-108.007599	1065.430908	756.040955
507.603363	-78.179901	1070.313843	738.872498
508.036621	-16.087700	1138.640991	812.421143
508.469940	-50.851192	1192.281738	768.301453
508.903107	-95.577576	1241.012451	768.301453
509.336304	-75.694908	1219.087524	746.230774
509.769379	-48.367363	1182.531738	861.410156
510.202484	-18.570162	1270.235474	746.230774
510.635529	-35.950069	1416.181519	797.717712
511.068481	-21.052593	1394.307617	763.397400
511.501434	-43.400158	1416.181519	898.129333
511.934265	31.058451	1411.321289	785.462463
512.367126	-68.240692	1350.540405	917.705078
512.799927	-135.363297	1408.890991	817.321716
513.232605	-26.018044	1287.277100	827.121399
513.665344	-26.018044	1316.482056	856.512939
514.097961	-21.052593	1262.930908	993.509827
514.530579	-38.433235	1547.296631	1047.257568
514.963135	-68.240692	1881.388916	1252.112793
515.395691	13.693295	2319.967041	1334.869751
515.828064	-55.819035	2310.352051	1395.663086
516.260498	-103.035301	1939.352905	1312.972290
516.692871	-48.367363	1857.225342	1171.702148
517.125183	40.979210	1733.880493	1083.880981
517.557373	-95.577576	1678.193359	1147.317749
517.989624	-58.303181	1629.738159	1003.285034
518.421753	-65.756126	1617.619629	1035.045776
518.853943	3.767967	1484.194702	1057.025757
519.286072	-98.063286	1641.854614	991.065796
519.718018	6.249354	1707.252319	1096.084595
520.150024	-3.677091	1784.692017	1144.878906
520.581909	-63.271660	1719.357056	1105.846313
521.013855	-33.466869	1835.472046	1176.578003
521.445679	-8.641074	1849.974854	1200.952393
521.877502	-30.983778	1871.724365	1208.263184
522.309204	-48.367363	1806.458740	1274.027954
522.740906	-13.605341	1828.219849	1149.756714
523.172546	-70.725372	1837.889404	1064.350830
523.604187	-21.052593	1779.854370	1137.562012
524.035767	-48.367363	1712.094482	1122.925659
524.467224	38.499279	1540.018188	1093.644287
524.898682	-50.851192	1506.043457	993.509827
525.330078	-40.916641	1421.041748	983.732971
525.761475	-40.916641	1462.339966	951.949463
526.192749	-26.018044	1365.132202	888.339600
526.624023	-70.725372	1335.945923	934.829346
527.055237	-6.159030	1331.080444	888.339600
527.486389	18.655268	1362.700684	868.755615
527.917542	-40.916641	1374.858643	942.167175
528.348572	16.174267	1377.290039	905.471008
528.779663	-85.635391	1472.053955	956.840210
529.210571	-35.950069	1527.886108	915.258423
529.641541	-23.535265	1639.431519	1076.557983
530.072388	-85.635391	1692.724121	1059.467651
530.503235	23.616825	1823.384399	1159.511108
530.934082	-28.500927	1874.140625	1247.241699
531.364746	-75.694908	1956.251465	1271.593262
531.795532	-40.916641	2163.588135	1483.120605
532.226135	-18.570162	2600.759033	1551.075317
532.656738	-6.159030	2997.692627	1824.732666
533.087280	-13.605341	3428.650635	2280.435791
533.517822	48.418663	4950.193848	3163.530029
533.948242	-28.500927	8535.893555	6103.275879
534.378662	-13.605341	20527.914063	13262.176758
534.809082	-58.303181	40140.511719	24247.123047
535.239319	8.730772	58752.703125	33793.171875
535.669617	-103.035301	64672.980469	38579.484375
536.099792	-6.159030	60678.925781	37420.347656
536.529968	-68.240692	52702.558594	33358.234375
536.960083	-43.400158	46051.652344	28816.718750
537.390137	-33.466869	40421.832031	26367.693359
537.820190	-13.605341	35558.386719	24485.681641
538.250183	13.693295	30081.865234	21811.927734
538.680115	-11.123223	25659.267578	18800.695313
539.109985	-23.535265	21137.125000	15470.414063
539.539795	-23.535265	17479.056641	12606.598633
539.969543	-83.150078	15025.800781	10574.016602
540.399292	-43.400158	12185.617188	8669.172852
540.828979	-70.725372	9518.382813	7000.367676
541.258606	-68.240692	6932.252441	5379.468750
541.688171	-40.916641	5165.544922	4107.259277
542.117737	-45.883778	3952.392578	3268.289795
542.547302	-68.240692	3059.714111	2623.658691
542.976685	-38.433235	2579.190430	2049.272217
543.406128	-65.756126	2175.627441	1730.389282
543.835388	-63.271660	1903.130127	1410.246216
544.264771	-103.035301	1707.252319	1210.700073
544.693970	-26.018044	1557.000000	1169.264038
545.123230	-68.240692	2026.223877	1599.578369
545.552307	26.097515	5753.416016	3553.445068
545.981506	-60.787434	10325.610352	5470.474609
546.410583	-21.052593	11666.816406	6325.837402
546.839539	-63.271660	8088.835938	5075.608887
547.268555	-26.018044	5506.489746	3598.521484
547.697449	-45.883778	4663.998535	2707.468262
548.126282	-55.819035	4053.996094	2527.783203
548.555054	-21.052593	3166.965576	2378.976318
548.983887	-16.087700	2129.869873	1894.815308
549.412598	40.979210	1557.000000	1553.501221
549.841309	-58.303181	1481.766602	1183.891113
550.269958	-16.087700	1270.235474	920.151672
550.698486	-73.210014	1209.341187	841.818909
551.127075	-53.335133	1287.277100	768.301453
551.555481	-6.159030	1124.004883	802.619324
551.983948	-105.521469	1289.711182	795.266785
552.412292	-60.787434	1508.470703	944.612671
552.840698	-43.400158	1724.198486	1042.373291
553.268860	-35.950069	1811.295166	1059.467651
553.697205	-16.087700	1712.094482	1008.172363
554.125366	-63.271660	1576.403442	991.065796
554.553467	-45.883778	1399.168823	954.394897
554.981628	-53.335133	1343.243652	851.615234
555.409607	-53.335133	1377.290039	866.307251
555.837646	-33.466869	1260.495850	893.234497
556.265564	-50.851192	1270.235474	863.858765
556.693481	36.019108	1197.156128	719.246033
557.121338	-117.953644	1145.958008	758.492981
557.549133	6.249354	1165.466187	753.588562
557.976929	18.655268	1143.519043	738.872498
558.404602	18.655268	1233.704712	768.301453
558.832275	-60.787434	1316.482056	763.397400
559.259888	-21.052593	1184.969360	795.266785
559.687439	-21.052593	1287.277100	805.070007
560.114929	-48.367363	1299.447144	783.011108
560.542419	-105.521469	1158.151245	748.683411
560.969788	-28.500927	1211.777954	773.205078
561.397156	6.249354	1219.087524	714.338501
561.824524	-63.271660	1216.651001	687.341064
562.251770	-11.123223	1189.844360	836.920105
562.679016	-40.916641	1214.214355	778.108154
563.106140	-63.271660	1223.960327	822.221863
563.533264	-33.466869	1287.277100	711.884583
563.960327	-16.087700	1199.593262	780.559692
564.387329	-83.150078	1223.960327	736.419434
564.814331	-6.159030	1233.704712	819.771851
565.241272	-8.641074	1350.540405	802.619324
565.668213	-40.916641	1377.290039	895.681946
566.094971	-45.883778	1493.906128	927.490784
566.521790	-120.440453	1866.891479	1137.562012
566.948425	-95.577576	2368.027832	1449.121094
567.375183	40.979210	3150.289795	2025.156982
567.801819	-23.535265	6023.060547	3700.465088
568.228394	-43.400158	11553.053711	6834.379883
568.654846	-43.400158	18552.441406	10358.341797
569.081421	85.602165	19742.058594	11313.134766
569.507874	-58.303181	16242.855469	9899.005859
569.934265	21.136166	11479.400391	7179.945313
570.360596	-117.953644	9020.064453	5584.717285
570.786865	-100.549232	7523.303223	4768.607910
571.213074	26.097515	5543.794434	4227.583984
571.639282	-78.179901	3862.522705	3368.185303
572.065430	-73.210014	2627.114258	2695.500000
572.491516	6.249354	2031.047241	1991.384033
572.917603	-1.195390	1653.969360	1495.259888
573.343567	-50.851192	1544.870605	1113.166382
573.769531	-60.787434	1416.181519	1074.116699
574.195435	-23.535265	1304.314697	925.044678
574.621277	-120.440453	1321.348633	885.891846
575.047119	-73.210014	1297.013428	888.339600
575.472839	8.730772	1350.540405	1030.160400
575.898560	-50.851192	1552.148315	978.844055
576.324158	-30.983778	2084.088379	1325.138550
576.749817	-73.210014	2995.306152	1609.275513
577.175293	-95.577576	3328.814941	1822.314941
577.600830	-8.641074	3016.780029	1703.760010
578.026306	-21.052593	2464.072021	1378.645874
578.451721	-70.725372	2890.254150	1711.023560
578.877136	-3.677091	3502.275879	2039.626953
579.302429	-40.916641	3656.480957	2181.785156
579.727661	-28.500927	3155.054443	1981.732056
580.152832	-78.179901	2396.851807	1553.501221
580.578064	-16.087700	2223.767090	1368.919922
581.003113	16.174267	2269.474854	1449.121094
581.428223	-1.195390	2139.505127	1381.076904
581.853271	-65.756126	1811.295166	1205.826294
582.278198	-55.819035	1673.349121	1130.244141
582.703125	11.212086	1738.721069	1208.263184
583.127930	-6.159030	1658.814697	1193.640991
583.552795	-45.883778	1842.723877	1200.952393
583.977539	-21.052593	2093.728760	1232.627197
584.402283	-28.500927	2202.107422	1342.167725
584.826965	13.693295	2377.636475	1512.251465
585.251587	-21.052593	2808.998291	1585.030640
585.676208	-63.271660	2978.600830	1938.284912
586.100647	-73.210014	3559.240234	2186.599854
586.525208	-48.367363	4454.761230	2774.461670
586.949524	26.097515	6088.058105	3591.405518
587.373962	-60.787434	8947.433594	5402.810547
587.798218	-105.521469	15552.540039	9293.355469
588.222534	31.058451	24073.685547	13593.623047
588.646729	-30.983778	27839.000000	15840.973633
589.070984	-80.664864	25825.445313	15626.133789
589.495117	-60.787434	25440.001953	16314.150391
589.919128	-75.694908	32886.281250	19867.998047
590.343201	-98.063286	40771.761719	24388.472656
590.767151	-18.570162	43900.074219	26729.408203
591.191101	-33.466869	42083.140625	26148.115234
591.614990	-63.271660	39258.015625	25354.886719
592.038818	-53.335133	36366.710938	23087.212891
592.462524	-65.756126	34324.203125	21322.558594
592.886292	-43.400158	30711.714844	20145.951172
593.310059	3.767967	27325.580078	18656.406250
593.733582	-73.210014	24298.890625	17215.679688
594.157227	-45.883778	21466.121094	15200.497070
594.580750	-55.819035	19315.509766	13639.986328
595.004272	-93.091835	17181.654297	12380.187500
595.427673	-73.210014	15857.284180	11087.282227
595.851074	-68.240692	14524.623047	9903.515625
596.274353	-18.570162	13548.225586	9107.528320
596.697632	-60.787434	12645.289063	8436.934570
597.120911	-85.635391	11646.746094	7710.307129
597.544067	-40.916641	10938.276367	7281.133301
597.967224	-30.983778	10264.882813	6889.733398
598.390320	-40.916641	9588.458984	6534.126953
598.813354	-55.819035	9128.939453	6140.396973
599.236328	31.058451	8672.453125	5703.507324
599.659241	-8.641074	8305.708984	5430.813965
600.082153	-1.195390	8077.412109	5197.247070
600.505005	-16.087700	7357.989258	4824.913086
600.927795	-65.756126	6842.320313	4597.173340
601.350525	-23.535265	6720.003906	4298.300781
601.773254	-38.433235	6292.113281	4295.944336
602.195862	-21.052593	6210.995605	4137.942383
602.618408	-21.052593	5872.040527	3875.671387
603.040955	-38.433235	5688.239746	3733.634521
603.463440	-13.605341	5322.128418	3429.975830
603.885925	8.730772	5273.072266	3380.071045
604.308350	-3.677091	4936.135254	3249.250488
604.730652	38.499279	4917.388184	3194.492920
605.152893	-13.605341	4617.012695	3132.556885
605.575195	-16.087700	4534.740234	2958.450195
605.997375	-23.535265	4282.846191	2714.648193
606.419495	-28.500927	4091.777832	2609.283936
606.841553	-108.007599	4072.888428	2678.741943
607.263672	-95.577576	3860.156738	2451.010254
607.685608	-35.950069	3812.825439	2390.986084
608.107605	-80.664864	3537.882324	2306.884277
608.529480	-70.725372	3582.965820	2330.921387
608.951294	-78.179901	3473.782227	2111.939941
609.373108	-135.363297	3473.782227	2210.669922
609.794800	-23.535265	3440.529053	2326.114258
610.216553	-78.179901	3580.593994	2318.903564
610.638123	-40.916641	3563.986084	2354.952148
611.059753	-88.120804	3412.018066	2258.790283
611.481262	-16.087700	3138.376709	1996.209473
611.902832	-65.756126	3021.551514	1916.552856
612.324219	-23.535265	3016.780029	2008.272217
612.745605	-85.635391	2856.804443	1856.156372
613.166931	-28.500927	2730.065430	1841.654663
613.588196	-48.367363	2763.560059	1715.865234
614.009460	40.979210	2634.300293	1648.051758
614.430664	-3.677091	2550.424561	1672.277466
614.851807	-50.851192	2942.794434	1897.230591
615.272827	-53.335133	3680.185059	2328.518066
615.693909	-75.694908	4931.448730	2898.752197
616.114929	-73.210014	5118.763672	3099.190674
616.535889	-18.570162	5041.532227	3030.038818
616.956787	48.418663	3720.468506	2506.197266
617.377563	-53.335133	3326.436768	2148.073730
617.798340	-28.500927	2988.147217	1916.552856
618.219055	-88.120804	2980.987793	1827.150391
618.639832	-167.709503	2598.363037	1742.490845
619.060364	-8.641074	2348.806396	1725.548462
619.481018	-65.756126	2108.187012	1502.542236
619.901611	-35.950069	2084.088379	1378.645874
620.322083	11.212086	1874.140625	1310.539063
620.742493	-58.303181	1847.557861	1295.936523
621.162842	-38.433235	1876.556885	1239.934937
621.583191	-55.819035	1801.622192	1244.806396
622.003418	-48.367363	1610.347778	1249.677368
622.423706	-105.521469	1736.300903	1203.389404
622.843872	-63.271660	1683.036987	1069.233887
623.264038	-1.195390	1639.431519	1037.488403
623.684143	-78.179901	1544.870605	998.397522
624.104126	-40.916641	1537.591797	1042.373291
624.524170	-65.756126	1637.008179	1105.846313
624.944031	18.655268	1520.605835	1078.998901
625.364014	-35.950069	1450.195557	956.840210
625.783752	-30.983778	1416.181519	966.620483
626.203552	-38.433235	1435.619995	964.175537
626.623230	-30.983778	1544.870605	959.285522
627.042969	-65.756126	1428.331299	971.510315
627.462585	-40.916641	1554.574219	922.598206
627.882141	-8.641074	1418.611694	932.383240
628.301697	-23.535265	1311.615601	964.175537
628.721130	-11.123223	1372.427246	871.203979
629.140625	-26.018044	1328.647705	814.871460
629.559998	-80.664864	1311.615601	741.325439
629.979309	-103.035301	1389.445679	731.513123
630.398560	28.578102	1267.800537	729.059875
630.817810	13.693295	1248.319214	871.203979
631.237000	-11.123223	1197.156128	748.683411
631.656067	-18.570162	1206.904297	785.462463
632.075195	36.019108	1177.656372	729.059875
632.494202	-33.466869	1221.523926	756.040955
632.913208	13.693295	1204.467407	805.070007
633.332092	-33.466869	1148.396606	773.205078
633.750977	-73.210014	1209.341187	719.246033
634.169739	-30.983778	1055.664063	756.040955
634.588562	-6.159030	1121.565186	638.226990
635.007263	23.616825	1097.164185	623.485474
635.425964	-65.756126	1004.366028	694.704956
635.844543	-85.635391	1028.798340	704.522583
636.263123	-75.694908	1097.164185	655.421021
636.681641	-103.035301	960.367188	650.508789
637.100037	-23.535265	977.481079	729.059875
637.518494	1.286340	1124.004883	711.884583
637.936829	-53.335133	1048.337891	741.325439
638.355164	-33.466869	997.034607	657.876709
638.773438	-88.120804	1004.366028	650.508789
639.191650	-58.303181	987.258545	621.028503
639.609863	-80.664864	955.476624	650.508789
640.027893	-117.953644	957.921875	618.571228
640.445984	-53.335133	1001.922302	593.993225
640.863953	-26.018044	852.698486	576.783325
641.281921	-38.433235	935.911377	670.155212
641.699829	-3.677091	1006.809692	608.741028
642.117676	-26.018044	918.787354	598.909607
642.535461	-58.303181	948.140198	530.048157
642.953247	-18.570162	899.211914	611.198669
643.370972	-18.570162	872.286926	547.270264
643.788635	-50.851192	779.192566	623.485474
644.206177	8.730772	992.146912	552.190125
644.623718	1.286340	906.553467	562.028442
645.041260	-13.605341	953.031250	537.429688
645.458618	-28.500927	938.357300	591.534912
645.876099	-18.570162	889.422302	571.865540
646.293396	-63.271660	877.183228	520.204956
646.710693	-40.916641	825.755554	527.587402
647.127991	36.019108	950.585754	544.810181
647.545166	-16.087700	776.741272	557.109314
647.962341	40.979210	850.249512	500.514038
648.379333	-8.641074	852.698486	549.730225
648.796448	18.655268	857.596191	547.270264
649.213379	-63.271660	943.249084	640.683289
649.630310	-100.549232	850.249512	574.324341
650.047180	-70.725372	730.145081	473.429108
650.463989	21.136166	820.855652	596.451477
650.880859	-68.240692	779.192566	446.333099
651.297546	-70.725372	710.516113	480.817078
651.714233	-65.756126	747.315735	507.898651
652.130859	-16.087700	771.837830	384.708679
652.547485	-35.950069	737.504517	522.665710
652.963928	6.249354	722.785034	507.898651
653.380432	-65.756126	762.029968	525.126587
653.796814	-68.240692	815.955322	502.975769
654.213196	-48.367363	1121.565186	684.886169
654.629578	-70.725372	1917.621094	1037.488403
655.045837	-60.787434	2435.269531	1247.241699
655.462036	-1.195390	2495.264160	1422.396729
655.878174	-70.725372	1949.009521	1271.593262
656.294312	-120.440453	1680.615356	998.397522
656.710327	-95.577576	1416.181519	1003.285034
657.126404	-28.500927	1335.945923	827.121399
657.542358	-13.605341	1184.969360	903.023865
657.958252	40.979210	1111.805908	770.753296
658.374084	-58.303181	970.146912	756.040955
658.789917	-8.641074	957.921875	623.485474
659.205688	-50.851192	857.596191	559.568909
659.621338	-73.210014	860.044922	411.830658
660.037048	13.693295	793.900024	515.282776
660.452637	-30.983778	649.139099	527.587402
660.868164	-68.240692	703.153992	456.187439
661.283691	-98.063286	739.957581	434.013000
661.699158	-60.787434	717.877747	436.477264
662.114502	3.767967	622.115479	448.796875
662.529846	43.459179	695.790710	478.354523
662.945129	-93.091835	693.336182	367.443146
663.360413	-6.159030	737.504517	377.309631
663.775635	-6.159030	744.863037	315.618286
664.190674	-11.123223	678.607056	387.174591
664.605835	-11.123223	622.115479	323.024292
665.020813	-6.159030	690.881714	399.503967
665.435791	1.286340	644.226379	416.760803
665.850769	8.730772	663.874634	362.509216
666.265625	-26.018044	685.972107	288.454742
666.680420	-11.123223	580.329834	332.897980
667.095215	-45.883778	690.881714	392.106598
667.509949	-108.007599	663.874634	372.376465
667.924622	-26.018044	685.972107	434.013000
668.339233	-26.018044	693.336182	456.187439
668.753784	-23.535265	627.029541	384.708679
669.168335	-73.210014	644.226379	399.503967
669.582825	13.693295	784.095520	517.743958
669.997192	-53.335133	1525.459473	971.510315
670.411560	-80.664864	3433.402100	1824.732666
670.825867	-16.087700	4804.839355	2563.748535
671.240173	-26.018044	4588.811523	2810.331787
671.654358	-103.035301	3050.174561	2090.252686
672.068481	-38.433235	2480.869385	1436.974854
672.482605	36.019108	2199.700439	1371.351563
672.896667	11.212086	1953.837646	1142.440186
673.310669	-3.677091	1595.802124	1059.467651
673.724609	-40.916641	1333.513184	1035.045776
674.138489	-11.123223	960.367188	876.100342
674.552307	-38.433235	784.095520	660.332581
674.966064	-103.035301	703.153992	611.198669
675.379822	-80.664864	656.507385	461.114166
675.793579	-80.664864	735.051453	318.087158
676.207153	-28.500927	639.313660	409.365479
676.620789	-60.787434	698.245239	350.172913
677.034241	-11.123223	629.486511	468.503571
677.447754	-6.159030	597.538818	318.087158
677.861206	-38.433235	597.538818	281.044647
678.274597	-13.605341	595.080627	323.024292
678.687866	16.174267	563.116394	281.044647
679.101135	-26.018044	511.448914	394.572479
679.514404	-8.641074	513.910217	364.976227
679.927551	45.939041	523.754272	293.394501
680.340698	28.578102	528.675903	271.162933
680.753723	-30.983778	486.831146	248.923294
681.166748	-35.950069	427.709869	290.924683
681.579712	-95.577576	422.780579	327.961334
681.992615	8.730772	553.278198	335.366150
682.405457	-48.367363	469.593048	360.042084
682.818298	-53.335133	403.060150	214.312561
683.231018	3.767967	442.495209	293.394501
683.643738	-38.433235	501.602966	231.620346
684.056335	-13.605341	570.494263	300.803406
684.468994	-78.179901	705.608215	310.680298
684.881531	-11.123223	886.974609	436.477264
685.293945	-65.756126	830.654907	505.437134
685.706482	-28.500927	604.912842	448.796875
686.118774	-98.063286	501.602966	392.106598
686.531128	-40.916641	472.055939	285.984711
686.943481	-60.787434	560.656860	298.333862
687.355713	-3.677091	506.526245	337.833984
687.767883	-45.883778	462.203766	266.221405
688.179932	-48.367363	407.990692	342.769836
688.592041	-38.433235	366.067474	290.924683
689.004089	1.286340	346.329224	199.473480
689.416016	-38.433235	388.265442	258.808533
689.827881	-68.240692	531.136597	327.961334
690.239868	-13.605341	563.116394	276.103912
690.651611	-70.725372	457.277130	281.044647
691.063354	-85.635391	432.638794	263.750519
691.475098	-33.466869	338.925690	320.555634
691.886719	-63.271660	417.851166	308.211151
692.298340	-58.303181	407.990692	239.036484
692.709900	-21.052593	363.600494	300.803406
693.121460	-48.367363	292.017212	246.451843
693.532837	-80.664864	319.179199	214.312561
693.944214	-80.664864	250.016571	211.839722
694.355652	-88.120804	254.959381	147.508240
694.766846	-13.605341	222.824509	172.259079
695.178101	-23.535265	282.137360	152.459290
695.589294	-98.063286	274.726227	204.420197
696.000366	-50.851192	289.547455	209.366653
696.411438	-33.466869	301.895599	204.420197
696.822510	-88.120804	217.879288	187.104752
697.233459	-13.605341	324.116272	147.508240
697.644409	-13.605341	269.785156	93.020844
698.055298	-78.179901	316.710388	187.104752
698.466064	-1.195390	299.426117	179.682358
698.876831	58.336536	324.116272	149.983810
699.287537	-90.606194	203.041061	154.934525
699.698181	-55.819035	289.547455	177.208130
700.108826	-43.400158	284.607391	224.203339
700.519348	-58.303181	217.879288	234.092529
700.929810	-85.635391	225.297058	199.473480
701.340271	63.294918	227.769485	137.605042
701.750732	-110.493988	178.302673	187.104752
702.161011	-33.466869	222.824509	174.733643
702.571350	-43.400158	304.365021	127.700233
702.981567	28.578102	245.073502	169.784531
703.391724	-18.570162	309.303375	192.052582
703.801880	-45.883778	279.667084	246.451843
704.211914	-88.120804	296.956665	145.032547
704.621948	-33.466869	262.372711	122.747299
705.031921	-8.641074	282.137360	130.176620
705.441895	-45.883778	262.372711	164.834885
705.851746	11.212086	272.255798	137.605042
706.261536	-90.606194	232.713928	159.884979
706.671265	-43.400158	294.487000	182.156647
707.081055	-40.916641	331.521545	97.976219
707.490662	-80.664864	230.241821	149.983810
707.900330	-13.605341	240.129913	174.733643
708.309814	38.499279	292.017212	102.931198
708.719299	-21.052593	235.186081	179.682358
709.128784	-21.052593	168.404495	177.208130
709.538147	-78.179901	262.372711	174.733643
709.947510	-3.677091	193.146866	36.003727
710.356750	-35.950069	185.725220	149.983810
710.766052	-55.819035	220.352005	162.359909
711.175171	-13.605341	343.861450	169.784531
711.584290	1.286340	262.372711	182.156647
711.993347	-18.570162	257.430481	154.934525
712.402405	8.730772	259.901642	107.885895
712.811401	21.136166	198.094101	80.630394
713.220276	-65.756126	148.603302	199.473480
713.629150	-26.018044	235.186081	110.363098
714.037964	-50.851192	289.547455	73.194954
714.446777	-35.950069	193.146866	115.317055
714.855408	-152.778229	277.196716	167.309769
715.264099	-65.756126	148.603302	120.270607
715.672668	-50.851192	175.828247	137.605042
716.081177	-16.087700	245.073502	137.605042
716.489746	-40.916641	175.828247	48.403423
716.898132	-8.641074	175.828247	137.605042
717.306519	65.773827	237.658112	142.556900
717.714844	-83.150078	257.430481	117.793945
718.123108	-3.677091	198.094101	162.359909
718.531372	-63.271660	269.785156	187.104752
718.939514	-40.916641	259.901642	97.976219
719.347595	-50.851192	225.297058	125.223877
719.755676	-11.123223	198.094101	206.893478
720.163696	-18.570162	257.430481	132.652908
720.571716	-68.240692	222.824509	78.151970
720.979614	-26.018044	185.725220	97.976219
721.387451	-127.901390	198.094101	85.586800
721.795227	-35.950069	235.186081	169.784531
722.202942	8.730772	200.567627	102.931198
722.610718	-78.179901	282.137360	102.931198
723.018311	-16.087700	170.879211	149.983810
723.425903	-98.063286	217.879288	48.403423
723.833374	1.286340	222.824509	28.562721
724.240906	-40.916641	108.981689	120.270607
724.648376	-33.466869	232.713928	90.542931
725.055725	-50.851192	104.027084	73.194954
725.463013	-90.606194	170.879211	162.359909
725.870300	31.058451	262.372711	78.151970
726.277466	1.286340	108.981689	177.208130
726.684631	-55.819035	183.251083	130.176620
727.091797	23.616825	165.929657	78.151970
727.498779	-8.641074	222.824509	147.508240
727.905823	6.249354	151.078842	182.156647
728.312805	-48.367363	259.901642	130.176620
728.719666	-58.303181	163.454727	80.630394
729.126526	55.857323	165.929657	73.194954
729.533264	-1.195390	156.029465	125.223877
729.940063	-48.367363	262.372711	122.747299
730.346680	-85.635391	227.769485	68.237389
730.753357	-35.950069	138.700302	105.408600
731.159851	3.767967	207.987473	80.630394
731.566406	-63.271660	245.073502	137.605042
731.972900	-26.018044	66.855148	147.508240
732.379272	-38.433235	210.460617	73.194954
732.785645	-65.756126	254.959381	63.279549
733.191895	-90.606194	133.748260	80.630394
733.598206	-50.851192	180.776855	125.223877
734.004333	-8.641074	168.404495	80.630394
734.410522	-55.819035	151.078842	120.270607
734.816528	-16.087700	158.504700	172.259079
735.222656	-90.606194	165.929657	135.129089
735.628662	-28.500927	237.658112	58.321297
736.034546	-53.335133	205.514374	154.934525
736.440430	-80.664864	284.607391	145.032547
736.846252	-68.240692	151.078842	154.934525
737.252014	-80.664864	173.353714	65.758591
737.657715	6.249354	178.302673	93.020844
738.063354	-70.725372	175.828247	179.682358
738.468933	-21.052593	207.987473	142.556900
738.874512	11.212086	175.828247	127.700233
739.280029	-68.240692	101.549759	157.409805
739.685486	-85.635391	126.319366	83.108711
740.090881	16.174267	153.554276	60.800404
740.496216	-48.367363	173.353714	102.931198
740.901550	-45.883778	183.251083	73.194954
741.306702	-18.570162	106.504440	60.800404
741.711914	-63.271660	128.795807	117.793945
742.117004	-40.916641	185.725220	93.020844
742.522095	3.767967	210.460617	112.840057
742.927124	-115.466934	250.016571	88.064919
743.332031	73.210320	287.077484	105.408600
743.737000	13.693295	210.460617	85.586800
744.141785	-43.400158	183.251083	142.556900
744.546631	-83.150078	66.855148	107.885895
744.951355	-18.570162	133.748260	125.223877
745.356079	16.174267	148.603302	107.885895
745.760620	-23.535265	185.725220	75.673584
746.165283	-1.195390	247.545151	80.630394
746.569824	-8.641074	143.652069	140.081024
746.974243	-85.635391	143.652069	88.064919
747.378723	-21.052593	170.879211	159.884979
747.783020	-95.577576	118.889565	65.758591
748.187378	-30.983778	146.127808	88.064919
748.591614	-93.091835	200.567627	58.321297
748.995850	-108.007599	123.842819	112.840057
749.399963	21.136166	146.127808	97.976219
749.804077	-21.052593	160.979828	140.081024
750.208130	-108.007599	220.352005	125.223877
750.612122	3.767967	126.319366	90.542931
751.016052	-73.210014	193.146866	95.498512
751.419922	-35.950069	165.929657	16.159018
751.823792	-1.195390	163.454727	85.586800
752.227478	-103.035301	84.204964	-8.656464
752.631226	-85.635391	146.127808	125.223877
753.034851	-33.466869	195.620590	68.237389
753.438477	-58.303181	156.029465	70.716225
753.842102	-50.851192	116.412712	75.673584
754.245544	-43.400158	203.041061	93.020844
754.648987	21.136166	84.204964	28.562721
755.052368	-33.466869	180.776855	145.032547
755.455750	1.286340	138.700302	63.279549
755.859009	-75.694908	136.224396	50.882946
756.262268	-105.521469	99.072197	58.321297
756.665405	-95.577576	210.460617	107.885895
757.068542	-70.725372	165.929657	31.043207
757.471680	-35.950069	151.078842	112.840057
757.874634	-21.052593	153.554276	80.630394
758.277588	-35.950069	178.302673	23.601580
758.680420	-53.335133	76.769966	80.630394
759.083374	3.767967	170.879211	102.931198
759.486084	-50.851192	123.842819	60.800404
759.888916	-98.063286	99.072197	58.321297
760.291504	26.097515	101.549759	117.793945
760.694214	-48.367363	66.855148	60.800404
761.096802	-26.018044	99.072197	45.923664
761.499268	8.730772	151.078842	68.237389
761.901733	-100.549232	151.078842	16.159018
762.304199	-58.303181	200.567627	1.270953
762.706543	21.136166	158.504700	88.064919
763.108826	36.019108	96.594536	-16.103090
763.511108	-75.694908	106.504440	8.715386
763.913208	-70.725372	158.504700	115.317055
764.315369	-68.240692	27.179428	110.363098
764.717529	8.730772	56.938694	43.443802
765.119568	-35.950069	37.100838	88.064919
765.521545	1.286340	94.116913	147.508240
765.923462	-112.980476	314.241486	179.682358
766.325317	-78.179901	528.675903	224.203339
766.727112	-60.787434	513.910217	360.042084
767.128845	-93.091835	459.740509	246.451843
767.530518	-103.035301	358.666260	179.682358
767.932251	-120.440453	299.426117	261.279633
768.333862	-21.052593	188.199249	132.652908
768.735413	-6.159030	292.017212	189.578720
769.136841	-11.123223	279.667084	224.203339
769.538269	11.212086	496.679321	273.633392
769.939636	6.249354	511.448914	293.394501
770.341003	-26.018044	390.731476	290.924683
770.742249	-63.271660	287.077484	162.359909
771.143433	-28.500927	235.186081	90.542931
771.544617	-16.087700	200.567627	122.747299
771.945740	-50.851192	198.094101	137.605042
772.346802	-26.018044	215.406448	78.151970
772.747803	-23.535265	183.251083	125.223877
773.148682	-21.052593	86.683006	152.459290
773.549622	-98.063286	136.224396	18.639885
773.950439	31.058451	76.769966	53.362499
774.351196	-88.120804	131.272018	45.923664
774.751892	-11.123223	178.302673	53.362499
775.152588	-26.018044	61.897060	53.362499
775.553162	-26.018044	108.981689	1.270953
775.953735	-35.950069	146.127808	43.443802
776.354309	-88.120804	64.376160	38.483898
776.754639	-30.983778	106.504440	45.923664
777.155090	-6.159030	89.161072	-28.516186
777.555420	-35.950069	136.224396	6.234103
777.955750	16.174267	133.748260	-40.932041
778.355896	-3.677091	108.981689	50.882946
778.756104	-6.159030	32.140408	75.673584
779.156189	13.693295	118.889565	31.043207
779.556274	-21.052593	74.291382	85.586800
779.956299	-100.549232	32.140408	28.562721
780.356201	-13.605341	148.603302	40.963970
780.756165	-58.303181	136.224396	78.151970
781.156006	-98.063286	81.726685	36.003727
781.555786	-65.756126	59.417999	38.483898
781.955505	-33.466869	54.459293	28.562721
782.355225	-26.018044	128.795807	18.639885
782.754761	-18.570162	81.726685	122.747299
783.154358	-28.500927	29.659971	53.362499
783.553894	-93.091835	96.594536	65.758591
783.953369	-26.018044	12.294271	58.321297
784.352783	43.459179	44.540775	26.082134
784.752075	-28.500927	89.161072	48.403423
785.151367	-60.787434	136.224396	13.677911
785.550598	40.979210	165.929657	50.882946
785.949768	58.336536	69.334038	60.800404
786.348877	-23.535265	101.549759	11.196701
786.747986	36.019108	195.620590	-18.585419
787.147034	-13.605341	113.935760	-6.174419
787.545959	-43.400158	71.812691	23.601580
787.944885	-58.303181	116.412712	38.483898
788.343750	-38.433235	158.504700	60.800404
788.742493	-13.605341	123.842819	-11.138478
789.141235	-100.549232	170.879211	21.120785
789.539917	-18.570162	165.929657	127.700233
789.938538	-83.150078	141.176239	78.151970
790.337158	-40.916641	175.828247	16.159018
790.735718	-58.303181	17.256495	60.800404
791.134094	-28.500927	64.376160	85.586800
791.532532	-33.466869	39.580967	45.923664
791.930847	-70.725372	131.272018	53.362499
792.329224	26.097515	69.334038	-43.415421
792.727417	-35.950069	108.981689	-33.482265
793.125610	-48.367363	17.256495	-11.138478
793.523682	36.019108	84.204964	13.677911
793.921753	-45.883778	12.294271	38.483898
794.319824	-105.521469	47.020592	23.601580
794.717773	-45.883778	47.020592	80.630394
795.115723	-112.980476	89.161072	36.003727
795.513550	-78.179901	47.020592	95.498512
795.911377	-35.950069	24.698919	68.237389
796.309082	-16.087700	79.248306	40.963970
796.706787	-21.052593	138.700302	53.362499
797.104370	-80.664864	56.938694	45.923664
797.501953	-103.035301	44.540775	120.270607
797.899536	-11.123223	42.060989	88.064919
798.296936	-6.159030	61.897060	23.601580
798.694397	6.249354	116.412712	13.677911
799.091736	-85.635391	81.726685	31.043207
799.489014	-50.851192	131.272018	68.237389
799.886230	-65.756126	113.935760	18.639885
800.283447	-11.123223	81.726685	21.120785
800.680542	-33.466869	54.459293	18.639885
801.077637	-83.150078	32.140408	16.159018
801.474670	-33.466869	106.504440	-28.516186
801.871643	-73.210014	27.179428	50.882946
802.268555	-70.725372	66.855148	122.747299
802.665405	-85.635391	27.179428	45.923664
803.062256	-45.883778	163.454727	18.639885
803.458923	6.249354	81.726685	48.403423
803.855652	-23.535265	121.366173	63.279549
804.252258	-48.367363	138.700302	-6.174419
804.648804	-3.677091	86.683006	18.639885
805.045410	-85.635391	29.659971	36.003727
805.441833	-63.271660	39.580967	11.196701
805.838257	6.249354	69.334038	11.196701
806.234619	-21.052593	148.603302	65.758591
806.630859	-100.549232	101.549759	-40.932041
807.027100	21.136166	34.620743	-23.550659
807.423279	-21.052593	-2.594633	-16.103090
807.819458	-60.787434	118.889565	-21.067987
808.215515	6.249354	12.294271	-33.482265
808.611572	-8.641074	44.540775	48.403423
809.007507	1.286340	12.294271	-35.965332
809.403381	-63.271660	66.855148	40.963970
809.799194	-1.195390	106.504440	26.082134
810.195068	-1.195390	64.376160	55.841949
810.590759	-35.950069	81.726685	90.542931
810.986450	-115.466934	81.726685	6.234103
811.382080	-43.400158	66.855148	-3.692479
811.777649	-18.570162	37.100838	68.237389
812.173157	-28.500927	61.897060	53.362499
812.568665	-70.725372	101.549759	68.237389
812.964050	-73.210014	71.812691	93.020844
813.359375	-1.195390	89.161072	11.196701
813.754639	-95.577576	113.935760	-8.656464
814.149841	-1.195390	74.291382	88.064919
814.545105	-75.694908	51.979916	48.403423
814.940186	-70.725372	108.981689	26.082134
815.335266	-65.756126	146.127808	21.120785
815.730347	21.136166	156.029465	50.882946
816.125244	-55.819035	108.981689	117.793945
816.520203	-26.018044	138.700302	70.716225
816.914978	-38.433235	257.430481	137.605042
817.309753	-30.983778	762.029968	271.162933
817.704468	-1.195390	2031.047241	765.849426
818.099182	-50.851192	3193.165039	1376.214600
818.493774	33.538830	4183.815918	2092.662598
818.888367	-35.950069	5130.460938	2661.980957
819.282898	-70.725372	5581.086914	3161.147461
819.677307	-53.335133	5469.174316	3211.161377
820.071716	-95.577576	4720.355957	2824.675781
820.466003	36.019108	3673.073975	2402.994141
820.860291	-68.240692	2768.344238	1962.424927
821.254517	-3.677091	2204.514404	1742.490845
821.648743	1.286340	1712.094482	1347.032227
822.042786	-23.535265	1301.880981	1054.583862
822.436890	11.212086	962.812012	868.755615
822.830872	-13.605341	708.062317	731.513123
823.224792	-8.641074	528.675903	436.477264
823.618774	-58.303181	252.488022	315.618286
824.012512	-11.123223	225.297058	221.730774
824.406311	43.459179	240.129913	142.556900
824.799988	-40.916641	148.603302	105.408600
825.193665	-53.335133	183.251083	164.834885
825.587280	-43.400158	163.454727	80.630394
825.980835	-21.052593	168.404495	105.408600
826.374329	-60.787434	2.368707	40.963970
826.767761	18.655268	86.683006	88.064919
827.161194	-80.664864	12.294271	147.508240
827.554443	-108.007599	47.020592	40.963970
827.947754	-26.018044	113.935760	38.483898
828.340942	-40.916641	64.376160	97.976219
828.734131	-58.303181	89.161072	107.885895
829.127136	-98.063286	96.594536	68.237389
829.520264	-18.570162	84.204964	16.159018
829.913208	-45.883778	74.291382	105.408600
830.306152	-43.400158	37.100838	100.453835
830.699097	-11.123223	101.549759	18.639885
831.091797	-45.883778	56.938694	83.108711
831.484619	1.286340	74.291382	1.270953
831.877319	-33.466869	89.161072	11.196701
832.270020	-33.466869	64.376160	53.362499
832.662537	-30.983778	24.698919	36.003727
833.055054	-115.466934	84.204964	33.523586
833.447510	-26.018044	81.726685	-1.210643
833.839966	-73.210014	22.218170	-18.585419
834.232361	-23.535265	34.620743	13.677911
834.624634	-98.063286	113.935760	18.639885
835.016907	-40.916641	9.813137	23.601580
835.409058	-35.950069	42.060989	18.639885
835.801208	-88.120804	71.812691	6.234103
836.193298	-26.018044	74.291382	-8.656464
836.585327	-30.983778	39.580967	-1.210643
836.977295	-6.159030	14.775435	-38.448631
837.369202	-21.052593	101.549759	3.752580
837.761047	-43.400158	89.161072	28.562721
838.152832	-40.916641	34.620743	31.043207
838.544617	-28.500927	69.334038	26.082134
838.936218	63.294918	81.726685	-33.482265
839.327942	-145.314056	74.291382	21.120785
839.719421	-33.466869	47.020592	21.120785
840.111023	31.058451	74.291382	31.043207
840.502380	-53.335133	4.850288	26.082134
840.893860	-6.159030	34.620743	26.082134
841.285217	-90.606194	19.737318	58.321297
841.676453	-33.466869	22.218170	65.758591
842.067749	-85.635391	-12.522700	26.082134
842.458862	-93.091835	-52.251621	-3.692479
842.849976	50.898319	-17.487295	65.758591
843.241028	3.767967	12.294271	83.108711
843.632019	-73.210014	44.540775	18.639885
844.022949	-35.950069	44.540775	36.003727
844.413879	-60.787434	94.116913	-8.656464
844.804749	-38.433235	99.072197	18.639885
845.195496	-70.725372	37.100838	80.630394
845.586182	-6.159030	7.331765	-43.415421
845.976807	-83.150078	37.100838	3.752580
846.367432	-73.210014	59.417999	43.443802
846.757996	-68.240692	-0.112843	-40.932041
847.148499	38.499279	-2.594633	-50.866596
847.538879	36.019108	-32.383865	6.234103
847.929260	-30.983778	79.248306	-6.174419
848.319641	-1.195390	-24.935040	93.020844
848.709839	-98.063286	-34.866882	33.523586
849.100098	6.249354	76.769966	60.800404
849.490234	-23.535265	-0.112843	-23.550659
849.880310	1.286340	-10.040493	75.673584
850.270325	-70.725372	-5.076527	-40.932041
850.660339	-38.433235	2.368707	80.630394
851.050171	-35.950069	54.459293	-1.210643
851.440125	-26.018044	-62.188099	53.362499
851.829895	-70.725372	56.938694	33.523586
852.219604	-16.087700	24.698919	-80.680275
852.609314	-6.159030	-12.522700	-53.350399
852.998901	-8.641074	-47.284084	-48.382767
853.388550	-6.159030	-15.005013	68.237389
853.778015	-85.635391	69.334038	23.601580
854.167480	8.730772	-34.866882	13.677911
854.556885	-26.018044	-79.580978	31.043207
854.946228	-75.694908	32.140408	31.043207
855.335571	-73.210014	69.334038	73.194954
855.724731	-35.950069	51.979916	-16.103090
856.113953	-53.335133	12.294271	-70.740639
856.503052	60.815777	34.620743	16.159018
856.892151	-73.210014	71.812691	75.673584
857.281067	-73.210014	-5.076527	43.443802
857.670105	-50.851192	29.659971	-8.656464
858.058960	-70.725372	14.775435	-33.482265
858.447754	3.767967	34.620743	-21.067987
858.836609	-40.916641	-10.040493	53.362499
859.225281	-55.819035	49.500305	-40.932041
859.613892	-8.641074	7.331765	70.716225
860.002502	-45.883778	32.140408	-26.033302
860.391052	-6.159030	69.334038	-85.650803
860.779541	-45.883778	27.179428	-26.033302
861.167969	-150.290024	76.769966	-18.585419
861.556335	-103.035301	74.291382	-23.550659
861.944702	43.459179	61.897060	43.443802
862.332947	3.767967	54.459293	-63.287064
862.721069	-13.605341	61.897060	3.752580
863.109253	-63.271660	-54.735619	50.882946
863.497314	-21.052593	-72.126274	-30.999174
863.885376	-85.635391	7.331765	-53.350399
864.273315	-18.570162	-37.350140	21.120785
864.661255	-33.466869	-22.452444	23.601580
865.049072	-50.851192	-2.594633	-21.067987
865.436890	-18.570162	2.368707	45.923664
865.824707	-80.664864	54.459293	-30.999174
866.212280	3.767967	-54.735619	60.800404
866.599915	-63.271660	-19.969816	-45.899040
866.987488	33.538830	4.850288	3.752580
867.375061	-18.570162	9.813137	-68.256104
867.762451	-1.195390	113.935760	-55.834438
868.149841	-21.052593	19.737318	-38.448631
868.537170	3.767967	56.938694	-16.103090
868.924438	-6.159030	-19.969816	-28.516186
869.311707	11.212086	-24.935040	-63.287064
869.698853	-95.577576	54.459293	-40.932041
870.085938	-103.035301	51.979916	70.716225
870.472961	-50.851192	-0.112843	-1.210643
870.859985	-13.605341	111.458847	36.003727
871.246887	8.730772	-34.866882	63.279549
871.633789	28.578102	47.020592	58.321297
872.020569	-43.400158	9.813137	21.120785
872.407349	-28.500927	-27.417875	-1.210643
872.794067	-3.677091	-12.522700	28.562721
873.180725	-90.606194	39.580967	3.752580
873.567322	-68.240692	-2.594633	-1.210643
873.953796	-58.303181	-12.522700	6.234103
874.340332	-55.819035	-10.040493	-8.656464
874.726624	-3.677091	89.161072	40.963970
875.113037	-33.466869	37.100838	-6.174419
875.499329	-35.950069	49.500305	-33.482265
875.885559	-93.091835	4.850288	26.082134
876.271729	-35.950069	86.683006	23.601580
876.657898	-11.123223	7.331765	16.159018
877.044006	18.655268	61.897060	-6.174419
877.429932	-80.664864	9.813137	-40.932041
877.815918	-26.018044	-2.594633	23.601580
878.201782	-40.916641	14.775435	-6.174419
878.587585	-45.883778	56.938694	-26.033302
878.973389	-78.179901	9.813137	1.270953
879.359070	-40.916641	22.218170	31.043207
879.744751	-80.664864	-39.833500	11.196701
880.130310	-16.087700	-49.767868	-8.656464
880.515930	-1.195390	9.813137	-78.195175
880.901367	13.693295	22.218170	-26.033302
881.286804	13.693295	49.500305	-38.448631
881.672180	13.693295	-54.735619	-35.965332
882.057434	-18.570162	-2.594633	55.841949
882.442749	-80.664864	37.100838	40.963970
882.827942	11.212086	44.540775	-30.999174
883.213013	-83.150078	-15.005013	-100.564651
883.598145	-48.367363	-10.040493	13.677911
883.983154	-30.983778	-64.672516	23.601580
884.368042	-33.466869	76.769966	21.120785
884.753052	-16.087700	-104.436981	65.758591
885.137817	-28.500927	7.331765	-13.620732
885.522644	33.538830	-7.558390	83.108711
885.907349	26.097515	2.368707	-53.350399
886.292053	-16.087700	-49.767868	-53.350399
886.676636	-125.414253	-12.522700	-35.965332
887.061157	-85.635391	42.060989	8.715386
887.445740	-3.677091	-59.703789	78.151970
887.830078	-16.087700	4.850288	36.003727
888.214539	-6.159030	27.179428	-13.620732
888.598816	-35.950069	-47.284084	-8.656464
888.983093	-55.819035	64.376160	-8.656464
889.367249	-28.500927	34.620743	-70.740639
889.751465	-68.240692	71.812691	-55.834438
890.135498	-43.400158	74.291382	13.677911
890.519531	-11.123223	24.698919	31.043207
890.903503	-40.916641	71.812691	-1.210643
891.287415	-120.440453	-2.594633	90.542931
891.671326	-98.063286	-15.005013	-75.710312
892.055054	-21.052593	51.979916	-55.834438
892.438843	-48.367363	42.060989	-48.382767
892.822510	-85.635391	-22.452444	-21.067987
893.206116	-16.087700	49.500305	-23.550659
893.589661	-16.087700	-17.487295	-13.620732
893.973206	-103.035301	-7.558390	-30.999174
894.356628	-45.883778	-27.417875	-38.448631
894.739990	1.286340	4.850288	-13.620732
895.123352	-40.916641	-116.869057	-16.103090
895.506592	-3.677091	29.659971	-45.899040
895.889832	26.097515	42.060989	-60.802704
896.272949	-26.018044	42.060989	-11.138478
896.656067	23.616825	17.256495	-60.802704
897.039063	-11.123223	-47.284084	21.120785
897.422058	-26.018044	-2.594633	26.082134
897.804993	-11.123223	-0.112843	-6.174419
898.187866	-11.123223	-24.935040	-43.415421
898.570618	43.459179	42.060989	-38.448631
898.953369	1.286340	-54.735619	-48.382767
899.336121	-103.035301	-22.452444	23.601580
899.718689	-105.521469	-29.900818	-3.692479
900.101257	-70.725372	-12.522700	-13.620732
900.483704	-18.570162	9.813137	-23.550659
900.866211	-16.087700	-62.188099	-112.995758
901.248596	-6.159030	-44.800404	21.120785
901.630920	-33.466869	-44.800404	-13.620732
902.013184	-3.677091	-101.950867	23.601580
902.395386	-18.570162	12.294271	-1.210643
902.777588	-13.605341	-84.551277	-11.138478
903.159668	-40.916641	34.620743	40.963970
903.541687	-21.052593	39.580967	38.483898
903.923645	-33.466869	-0.112843	26.082134
904.305603	-18.570162	32.140408	48.403423
904.687500	-43.400158	32.140408	-16.103090
905.069275	13.693295	-44.800404	-13.620732
905.451050	-30.983778	-2.594633	-23.550659
905.832642	-100.549232	-39.833500	-28.516186
906.214294	33.538830	-37.350140	-28.516186
906.595825	-26.018044	61.897060	-70.740639
906.977417	-90.606194	-19.969816	-6.174419
907.358826	6.249354	24.698919	-100.564651
907.740234	-13.605341	-19.969816	-125.429680
908.121582	16.174267	17.256495	6.234103
908.502869	-11.123223	-27.417875	-30.999174
908.884033	1.286340	-54.735619	-55.834438
909.265198	-13.605341	4.850288	85.586800
909.646301	-16.087700	22.218170	16.159018
910.027344	18.655268	-49.767868	-6.174419
910.408325	-40.916641	22.218170	-21.067987
910.789246	-63.271660	-49.767868	23.601580
911.170105	-98.063286	24.698919	1.270953
911.550903	-58.303181	39.580967	13.677911
911.931641	-11.123223	17.256495	3.752580
912.312317	-33.466869	-32.383865	-70.740639
912.692932	-26.018044	-29.900818	3.752580
913.073547	-35.950069	14.775435	-78.195175
913.453979	31.058451	-24.935040	-70.740639
913.834473	-80.664864	-42.316833	-21.067987
914.214783	-75.694908	19.737318	-3.692479
914.595154	-26.018044	19.737318	38.483898
914.975464	-117.953644	44.540775	-21.067987
915.355652	-137.850861	-12.522700	-11.138478
915.735840	-60.787434	-37.350140	11.196701
916.115845	-55.819035	-17.487295	48.403423
916.495972	-50.851192	2.368707	31.043207
916.875854	-78.179901	-0.112843	26.082134
917.255859	-28.500927	-7.558390	55.841949
917.635620	-40.916641	-129.303680	26.082134
918.015503	3.767967	-24.935040	40.963970
918.395203	-55.819035	-22.452444	-21.067987
918.774902	-50.851192	22.218170	11.196701
919.154480	-30.983778	2.368707	73.194954
919.534058	-63.271660	32.140408	65.758591
919.913574	-16.087700	81.726685	-3.692479
920.292969	-18.570162	29.659971	-50.866596
920.672363	-16.087700	7.331765	-50.866596
921.051636	-68.240692	39.580967	95.498512
921.430969	-50.851192	-27.417875	-13.620732
921.810181	-45.883778	-49.767868	-53.350399
922.189331	-58.303181	-24.935040	-40.932041
922.568420	18.655268	-5.076527	-75.710312
922.947388	-85.635391	24.698919	6.234103
923.326416	-30.983778	42.060989	28.562721
923.705261	16.174267	7.331765	-8.656464
924.084106	-13.605341	-10.040493	16.159018
924.462891	-58.303181	44.540775	-6.174419
924.841675	-40.916641	-27.417875	-68.256104
925.220337	3.767967	49.500305	43.443802
925.598938	-60.787434	-19.969816	-78.195175
925.977478	-83.150078	49.500305	-53.350399
926.355957	-33.466869	47.020592	-23.550659
926.734436	-55.819035	-17.487295	-50.866596
927.112732	-8.641074	-52.251621	-13.620732
927.491089	-68.240692	-15.005013	16.159018
927.869324	-21.052593	-17.487295	-1.210643
928.247559	-21.052593	22.218170	-16.103090
928.625671	23.616825	81.726685	-73.225426
929.003723	3.767967	-52.251621	50.882946
929.381775	1.286340	-39.833500	18.639885
929.759705	-63.271660	-19.969816	-21.067987
930.137634	-38.433235	-54.735619	-75.710312
930.515381	-70.725372	-37.350140	-21.067987
930.893250	-55.819035	-67.156906	-58.318584
931.270935	-48.367363	-27.417875	21.120785
931.648560	-3.677091	-2.594633	-18.585419
932.026123	-35.950069	-19.969816	-6.174419
932.403687	11.212086	-22.452444	8.715386
932.781250	3.767967	-52.251621	-30.999174
933.158630	-26.018044	-39.833500	36.003727
933.536011	-60.787434	14.775435	-26.033302
933.913208	-50.851192	2.368707	-98.078697
934.290527	-73.210014	76.769966	-35.965332
934.667664	8.730772	29.659971	13.677911
935.044800	50.898319	86.683006	-8.656464
935.421814	40.979210	42.060989	28.562721
935.798889	-68.240692	32.140408	28.562721
936.175842	6.249354	54.459293	-50.866596
936.552673	-30.983778	-94.493279	-38.448631
936.929504	-30.983778	-64.672516	-68.256104
937.306274	-137.850861	-89.522133	-50.866596
937.683044	28.578102	-39.833500	18.639885
938.059570	-85.635391	-24.935040	-23.550659
938.436218	6.249354	-27.417875	-18.585419
938.812744	-43.400158	27.179428	-8.656464
939.189148	-70.725372	-22.452444	-63.287064
939.565613	-13.605341	14.775435	-88.136078
939.941956	-8.641074	-47.284084	-28.516186
940.318237	-63.271660	12.294271	-13.620732
940.694458	-3.677091	-7.558390	18.639885
941.070557	11.212086	-37.350140	-88.136078
941.446655	-30.983778	22.218170	13.677911
941.822693	-23.535265	-32.383865	-26.033302
942.198669	-3.677091	19.737318	-26.033302
942.574646	-1.195390	-74.611115	-48.382767
942.950562	-33.466869	-22.452444	16.159018
943.326294	-30.983778	-89.522133	-93.107246
943.702026	28.578102	-64.672516	-8.656464
944.077698	-33.466869	-129.303680	18.639885
944.453369	-53.335133	14.775435	21.120785
944.828918	-45.883778	-39.833500	1.270953
945.204468	-33.466869	-79.580978	-50.866596
945.579834	-68.240692	-2.594633	-16.103090
945.955261	-33.466869	-2.594633	-23.550659
946.330627	-78.179901	24.698919	-98.078697
946.705811	16.174267	-37.350140	-60.802704
947.081055	21.136166	-72.126274	-45.899040
947.456177	-38.433235	-2.594633	-58.318584
947.831238	-55.819035	-44.800404	-50.866596
948.206238	-53.335133	-89.522133	-26.033302
948.581238	-45.883778	-57.219715	-3.692479
948.956116	3.767967	14.775435	16.159018
949.330933	-78.179901	-37.350140	13.677911
949.705811	-30.983778	17.256495	6.234103
950.080505	-73.210014	47.020592	-80.680275
950.455139	-55.819035	-69.641533	-53.350399
950.829773	-85.635391	7.331765	-8.656464
951.204346	-16.087700	89.161072	-26.033302
951.578735	-73.210014	-0.112843	-18.585419
951.953186	-83.150078	-59.703789	21.120785
952.327515	3.767967	-44.800404	-63.287064
952.701843	-48.367363	2.368707	11.196701
953.076172	-33.466869	-22.452444	-1.210643
953.450195	90.558159	37.100838	-26.033302
953.824341	-38.433235	-0.112843	-43.415421
954.198486	-50.851192	-37.350140	-105.536751
954.572449	-35.950069	4.850288	6.234103
954.946350	21.136166	-96.979080	-50.866596
955.320251	-11.123223	12.294271	-53.350399
955.694092	-50.851192	-129.303680	-53.350399
956.067871	-11.123223	-79.580978	-11.138478
956.441589	-11.123223	-69.641533	-18.585419
956.815125	11.212086	-62.188099	-30.999174
957.188721	-80.664864	-12.522700	-45.899040
957.562256	1.286340	-52.251621	-85.650803
957.935730	-8.641074	-32.383865	-48.382767
958.309021	3.767967	-52.251621	-58.318584
958.682373	-35.950069	-82.066147	-1.210643
959.055664	-23.535265	-69.641533	-16.103090
959.428955	-65.756126	-77.095932	-33.482265
959.802063	-65.756126	-22.452444	-21.067987
960.175110	8.730772	-79.580978	-33.482265
960.548157	-55.819035	-34.866882	48.403423
960.921143	-105.521469	-10.040493	26.082134
961.294128	26.097515	-12.522700	18.639885
961.666809	-145.314056	-34.866882	-13.620732
962.039612	-11.123223	-7.558390	28.562721
962.412415	-105.521469	-82.066147	8.715386
962.785095	-63.271660	-64.672516	-23.550659
963.157715	-105.521469	66.855148	-40.932041
963.530151	-73.210014	-15.005013	-100.564651
963.902649	-95.577576	12.294271	-58.318584
964.275146	-50.851192	-24.935040	-75.710312
964.647522	-63.271660	-72.126274	-85.650803
965.019714	-40.916641	-44.800404	-103.050575
965.392029	-55.819035	-39.833500	11.196701
965.764160	-60.787434	-104.436981	16.159018
966.136292	-53.335133	-77.095932	-33.482265
966.508423	-100.549232	-89.522133	-73.225426
966.880371	-53.335133	-59.703789	-30.999174
967.252319	-21.052593	-29.900818	-13.620732
967.624207	-33.466869	-7.558390	-80.680275
967.996094	-3.677091	-77.095932	-6.174419
968.367737	-48.367363	-29.900818	-26.033302
968.739441	1.286340	-44.800404	28.562721
969.111084	33.538830	-15.005013	-16.103090
969.482666	8.730772	12.294271	8.715386
969.854248	-70.725372	-0.112843	-43.415421
970.225586	-80.664864	-15.005013	-21.067987
970.596985	53.377872	-72.126274	-120.455734
970.968323	-30.983778	-49.767868	-50.866596
971.339661	-23.535265	-64.672516	-11.138478
971.710754	-83.150078	-82.066147	26.082134
972.081909	-88.120804	-39.833500	-63.287064
972.453064	-18.570162	-15.005013	-6.174419
972.824097	-28.500927	37.100838	8.715386
973.194946	-103.035301	-59.703789	-26.033302
973.565918	-23.535265	56.938694	3.752580
973.936768	55.857323	-7.558390	11.196701
974.307556	-23.535265	24.698919	33.523586
974.678284	-105.521469	19.737318	-3.692479
975.048828	-75.694908	-67.156906	-18.585419
975.419495	-28.500927	-59.703789	-21.067987
975.790039	16.174267	-47.284084	-8.656464
976.160522	-55.819035	-104.436981	23.601580
976.530884	-38.433235	29.659971	1.270953
976.901245	-98.063286	-12.522700	1.270953
977.271606	-127.901390	-15.005013	18.639885
977.641846	-60.787434	24.698919	-48.382767
978.012024	-30.983778	-24.935040	-35.965332
978.382019	-16.087700	-42.316833	8.715386
978.752136	-55.819035	-12.522700	-16.103090
979.122131	-40.916641	-44.800404	-73.225426
979.492065	11.212086	-24.935040	-105.536751
979.861877	-26.018044	-22.452444	1.270953
980.231689	-38.433235	-37.350140	-35.965332
980.601440	-100.549232	9.813137	23.601580
980.971191	-38.433235	2.368707	-68.256104
981.340820	3.767967	-64.672516	26.082134
981.710266	-38.433235	32.140408	-43.415421
982.079773	-50.851192	-94.493279	-58.318584
982.449280	28.578102	-54.735619	6.234103
982.818604	-55.819035	-39.833500	16.159018
983.187866	-13.605341	9.813137	-83.165482
983.557129	-40.916641	-34.866882	-65.771530
983.926331	-21.052593	-62.188099	-55.834438
984.295471	-35.950069	-39.833500	-1.210643
984.664612	-16.087700	-67.156906	-26.033302
985.033569	-80.664864	-10.040493	-45.899040
985.402527	6.249354	-84.551277	18.639885
985.771362	-18.570162	-19.969816	-145.329483
986.140259	-18.570162	-10.040493	-132.891266
986.508911	-38.433235	-22.452444	-73.225426
986.877625	-16.087700	12.294271	-30.999174
987.246277	1.286340	-49.767868	-60.802704
987.614929	-53.335133	-15.005013	40.963970
987.983459	-53.335133	-54.735619	-13.620732
988.351807	28.578102	-10.040493	-16.103090
988.720215	-63.271660	-37.350140	18.639885
989.088623	1.286340	-131.790985	8.715386
989.456909	6.249354	-74.611115	1.270953
989.825012	-26.018044	-59.703789	8.715386
990.193115	-43.400158	-34.866882	-1.210643
990.561279	-60.787434	-17.487295	-40.932041
990.929321	-16.087700	-37.350140	-93.107246
991.297302	-95.577576	-49.767868	-11.138478
991.665100	8.730772	-79.580978	-11.138478
992.033020	16.174267	17.256495	-33.482265
992.400818	-53.335133	42.060989	-18.585419
992.768494	26.097515	-17.487295	-28.516186
993.136047	8.730772	-57.219715	-21.067987
993.503723	-13.605341	-10.040493	23.601580
993.871277	-70.725372	-54.735619	-95.592850
994.238770	-103.035301	-69.641533	13.677911
994.606140	-70.725372	-64.672516	-6.174419
994.973450	-30.983778	-57.219715	-53.350399
995.340759	-50.851192	-47.284084	40.963970
995.708008	-45.883778	-106.923210	-88.136078
996.075195	3.767967	-52.251621	-50.866596
996.442200	-55.819035	7.331765	11.196701
996.809265	-38.433235	-10.040493	-6.174419
997.176270	26.097515	34.620743	63.279549
997.543152	-30.983778	14.775435	-21.067987
997.910095	-43.400158	-24.935040	-11.138478
998.276733	-83.150078	29.659971	-23.550659
998.643494	8.730772	-19.969816	-21.067987
999.010193	-26.018044	-69.641533	16.159018
999.376831	-80.664864	-111.895851	-18.585419
999.743286	-40.916641	4.850288	-40.932041
1000.109802	-60.787434	-5.076527	-50.866596
1000.476257	8.730772	-124.329529	-16.103090
1000.842651	-28.500927	9.813137	-8.656464
1001.208923	65.773827	-17.487295	-40.932041
1001.575134	-30.983778	-52.251621	-21.067987
1001.941284	-105.521469	-52.251621	-11.138478
1002.307434	-93.091835	-74.611115	-48.382767
1002.673523	78.167336	-96.979080	-40.932041
1003.039429	-26.018044	-84.551277	-13.620732
1003.405334	-40.916641	-104.436981	-35.965332
1003.771179	-70.725372	-24.935040	18.639885
1004.137024	-115.466934	-32.383865	45.923664
1004.502808	-45.883778	17.256495	-33.482265
1004.868408	-93.091835	-27.417875	-73.225426
1005.234009	-73.210014	-44.800404	-48.382767
1005.599609	-115.466934	-34.866882	-13.620732
1005.965149	-55.819035	-10.040493	13.677911
1006.330444	-70.725372	-54.735619	-8.656464
1006.695862	-3.677091	-47.284084	-98.078697
1007.061218	-28.500927	2.368707	-88.136078
1007.426453	-3.677091	-47.284084	-11.138478
1007.791626	43.459179	-7.558390	38.483898
1008.156677	-43.400158	-32.383865	-28.516186
1008.521729	-78.179901	-49.767868	-30.999174
1008.886780	-40.916641	-29.900818	-23.550659
1009.251709	-58.303181	4.850288	-83.165482
1009.616577	-105.521469	-27.417875	3.752580
1009.981384	-127.901390	-79.580978	-43.415421
1010.346130	-35.950069	-104.436981	-48.382767
1010.710754	-40.916641	-29.900818	-30.999174
1011.075439	21.136166	-37.350140	-85.650803
1011.439941	-65.756126	-47.284084	-38.448631
1011.804443	-50.851192	-7.558390	-40.932041
1012.168884	11.212086	-47.284084	-95.592850
1012.533325	45.939041	-42.316833	-60.802704
1012.897522	-18.570162	-82.066147	11.196701
1013.261780	-13.605341	-17.487295	-105.536751
1013.626038	-43.400158	-10.040493	-8.656464
1013.990112	28.578102	-22.452444	-30.999174
1014.354187	16.174267	-19.969816	-3.692479
1014.718140	-63.271660	-0.112843	-1.210643
1015.082153	-11.123223	17.256495	-1.210643
1015.446045	-11.123223	-39.833500	-60.802704
1015.809937	-13.605341	-5.076527	-70.740639
1016.173523	-63.271660	-24.935040	43.443802
1016.537170	-33.466869	-39.833500	45.923664
1016.900879	3.767967	-72.126274	-13.620732
1017.264404	-3.677091	-39.833500	-80.680275
1017.627991	-75.694908	-104.436981	-68.256104
1017.991333	-78.179901	-57.219715	-93.107246
1018.354675	-88.120804	-69.641533	-45.899040
1018.718018	-58.303181	-19.969816	8.715386
1019.081299	-53.335133	-49.767868	-1.210643
1019.444397	-88.120804	-52.251621	-13.620732
1019.807495	-73.210014	-79.580978	-26.033302
1020.170593	-3.677091	2.368707	-120.455734
1020.533691	-53.335133	-0.112843	-1.210643
1020.896606	-38.433235	-12.522700	-28.516186
1021.259460	-95.577576	-17.487295	-50.866596
1021.622253	-43.400158	-54.735619	-21.067987
1021.985046	-83.150078	-94.493279	-3.692479
1022.347778	-75.694908	-32.383865	-21.067987
1022.710327	53.377872	-52.251621	-38.448631
1023.072876	26.097515	-79.580978	-11.138478
1023.435364	-33.466869	-62.188099	-21.067987
1023.797852	-53.335133	-57.219715	-103.050575
1024.160278	-80.664864	-47.284084	-75.710312
1024.522461	-85.635391	-74.611115	8.715386
1024.884766	-63.271660	-141.741119	-58.318584
1025.246948	-26.018044	-37.350140	-88.136078
1025.609131	-80.664864	-69.641533	-16.103090
1025.971069	-33.466869	-99.464981	-30.999174
1026.333130	-18.570162	-54.735619	-38.448631
1026.694946	-1.195390	-64.672516	-95.592850
1027.056885	-50.851192	-34.866882	-95.592850
1027.418823	-11.123223	74.291382	-112.995758
1027.780396	8.730772	-69.641533	-60.802704
1028.142090	-3.677091	-12.522700	-85.650803
1028.503784	-135.363297	-44.800404	-21.067987
1028.865479	-110.493988	-74.611115	-8.656464
1029.226807	-8.641074	-42.316833	-11.138478
1029.588135	-48.367363	-34.866882	-21.067987
1029.949707	-40.916641	-17.487295	-93.107246
1030.310913	-8.641074	-17.487295	-68.256104
1030.672241	-21.052593	-15.005013	-45.899040
1031.033325	-90.606194	-0.112843	-1.210643
1031.394531	-68.240692	-39.833500	-73.225426
1031.755493	-58.303181	-37.350140	36.003727
1032.116577	-45.883778	56.938694	-35.965332
1032.477417	-135.363297	-89.522133	-80.680275
1032.838257	1.286340	-32.383865	-38.448631
1033.199097	11.212086	-0.112843	88.064919
1033.559937	53.377872	-52.251621	65.758591
1033.920654	-28.500927	-74.611115	-45.899040
1034.281128	-63.271660	-19.969816	-38.448631
1034.641724	-11.123223	-17.487295	-13.620732
1035.002197	-30.983778	-99.464981	-53.350399
1035.362671	43.459179	-52.251621	-43.415421
1035.722900	3.767967	91.639038	-58.318584
1036.083252	-33.466869	69.334038	-40.932041
1036.443481	-95.577576	-59.703789	-23.550659
1036.803711	-65.756126	-77.095932	45.923664
1037.163940	90.558159	-39.833500	-21.067987
1037.523804	11.212086	-5.076527	-28.516186
1037.883789	-93.091835	-27.417875	-11.138478
1038.243774	-26.018044	17.256495	-38.448631
1038.603638	-68.240692	-57.219715	-18.585419
1038.963257	-35.950069	-10.040493	-8.656464
1039.323120	-13.605341	-22.452444	-1.210643
1039.682861	36.019108	2.368707	-80.680275
>>>>>End Processed Spectral Data<<<<<
