Jaz Data File
++++++++++++++++++++++++++++++++++++
Date: Thu Dec 04 18:24:07 2014
User: jaz
Dark Spectrum Present: Yes
Reference Spectrum Present: Yes
Processed Spectrum Present: No
Spectrometers: JAZA2310
Integration Time (usec): 504000 (JAZA2310)
Spectra Averaged: 1 (JAZA2310)
Boxcar Smoothing: 0 (JAZA2310)
Correct for Electrical Dark: Yes (JAZA2310)
Strobe/Lamp Enabled: No (JAZA2310)
Correct for Detector Non-linearity: Yes (JAZA2310)
Correct for Stray Light: No (JAZA2310)
Number of Pixels in Processed Spectrum: 2048
>>>>>Begin Processed Spectral Data<<<<<
W	D	R	S
188.301102	0.000000	0.000000	0.000000
188.764923	0.000000	0.000000	0.000000
189.228699	-49.654930	-216.309174	-20.737171
189.692459	-91.894699	-183.935379	-10.807717
190.156158	-94.380249	-221.291351	-40.601112
190.619812	-54.622669	-216.309174	16.489626
191.083435	62.009785	200.679962	6.564767
191.547043	9.925827	-59.590965	-43.084476
192.010590	9.925827	-14.892141	18.970480
192.474091	-29.787918	94.229431	6.564767
192.937561	37.213612	-52.138813	-53.019398
193.401001	81.839378	143.764511	-48.051792
193.864410	2.481545	131.384476	128.030365
194.327759	74.404083	158.617111	85.917160
194.791077	-34.753971	9.925827	105.738716
195.254349	-14.892141	2.481545	41.294441
195.717575	49.613056	101.662277	66.088921
196.180786	14.888249	-64.559685	41.294441
196.643951	52.092663	116.525200	-10.807717
197.107071	24.811714	-7.445668	-18.254616
197.570145	32.253189	94.229431	14.008533
198.033203	-4.963674	4.962986	4.083258
198.496216	-9.927631	42.173615	23.932146
198.959167	-67.043938	-67.044075	-30.668301
199.422089	-72.013290	44.653534	-55.503426
199.884979	37.213612	34.733383	-87.804886
200.347855	42.173752	44.653534	-30.668301
200.810654	42.173752	74.403946	9.046171
201.273422	29.772757	17.369171	53.692902
201.736160	66.967865	395.775208	51.213497
202.198853	64.488876	146.240250	-38.117718
202.661514	79.361000	106.616943	48.733852
203.124130	-29.787918	-72.013428	-5.843686
203.586700	86.795677	247.657410	-23.219830
204.049240	126.431976	86.795677	48.733852
204.511734	-64.559555	79.361000	-8.325582
204.974197	7.444594	76.882530	43.774395
205.436615	-47.171146	-47.171284	-55.503426
205.899002	-24.822149	121.478790	-5.843686
206.361343	-17.374418	-12.409968	6.564767
206.823654	-59.590828	-14.892141	-33.151245
207.285919	-7.445533	101.662277	56.172337
207.748123	-49.654930	44.653534	-77.864037
208.210327	64.488876	22.330835	41.294441
208.672485	59.530727	27.292219	-43.084476
209.134583	64.488876	151.191269	-85.319481
209.596649	-99.351952	14.888115	-85.319481
210.058670	12.407091	-2.481920	-75.379189
210.520676	-101.837822	-121.729614	-87.804886
210.982635	17.369307	-4.963809	-5.843686
211.444534	7.444594	27.292219	48.733852
211.906403	17.369307	208.099792	-45.568081
212.368240	2.481545	166.042053	-3.361760
212.830048	-119.242615	-7.445668	95.828682
213.291779	7.444594	185.837585	61.130768
213.753494	-64.559555	-86.923775	-25.702457
214.215179	-54.622669	-22.339691	-15.772302
214.676819	-64.559555	-89.409248	43.774395
215.138412	-86.923637	-9.927766	-53.019398
215.599960	0.000000	74.403946	-33.151245
216.061493	57.051430	-34.754105	-13.289957
216.522949	29.772757	49.612923	-102.719299
216.984406	42.173752	17.369171	11.527337
217.445801	-19.856936	-7.445668	4.083258
217.907166	32.253189	52.092525	-20.737171
218.368484	-2.481785	126.431839	28.893261
218.829773	-9.927631	74.403946	-15.772302
219.291031	0.000000	42.173615	-43.084476
219.752228	57.051430	69.446617	-33.151245
220.213379	106.617081	101.662277	9.046171
220.674500	-12.409834	-129.190720	-35.634430
221.135574	9.925827	27.292219	33.854099
221.596634	44.653534	111.571342	-45.568081
222.057648	-49.654930	42.173615	-65.440460
222.518600	-74.498131	-69.528694	-67.924881
222.979553	-79.467987	-136.652802	-72.894310
223.440430	7.444594	123.955292	-35.634430
223.901276	12.407091	76.882530	4.083258
224.362076	7.444594	-86.923775	-15.772302
224.822845	-91.894699	-79.468124	-38.117718
225.283569	2.481545	27.292219	-120.124352
225.744278	-96.866043	-72.013428	-30.668301
226.204910	7.444594	153.666687	4.083258
226.665512	-44.687473	-106.810295	-48.051792
227.126114	-29.787918	-7.445668	-33.151245
227.586639	54.572029	114.048256	36.334225
228.047119	0.000000	7.444459	48.733852
228.507568	-74.498131	138.812881	-40.601112
228.967972	-17.374418	-14.892141	11.527337
229.428345	-111.782791	-49.654930	-20.737171
229.888687	0.000000	71.925262	-67.924881
230.348984	-4.963674	27.292219	-15.772302
230.809219	-59.590828	27.292219	6.564767
231.269440	-34.753971	-24.822283	-18.254616
231.729614	-81.953140	-79.468124	-18.254616
232.189758	-94.380249	7.444459	4.083258
232.649841	-14.892141	69.446617	-50.535473
233.109894	-12.409834	62.009785	-18.254616
233.569901	62.009785	210.572937	56.172337
234.029892	47.133343	158.617111	-0.879938
234.489822	9.925827	180.889374	11.527337
234.949707	-39.720581	-44.687611	-20.737171
235.409561	-2.481785	185.837585	21.451365
235.869385	17.369307	111.571342	-65.440460
236.329163	-14.892141	22.330835	14.008533
236.788895	-57.106766	-47.171284	16.489626
237.248581	57.051430	44.653534	-3.361760
237.708237	39.693733	22.330835	4.083258
238.167847	-4.963674	-2.481920	-10.807717
238.627441	29.772757	44.653534	61.130768
239.086960	-29.787918	49.612923	-40.601112
239.546463	86.795677	81.839241	-18.254616
240.005920	62.009785	71.925262	16.489626
240.465332	-89.409119	-116.755981	-67.924881
240.924698	-32.270958	89.273613	-3.361760
241.384033	39.693733	-86.923775	-50.535473
241.843338	59.530727	-22.339691	-20.737171
242.302597	-32.270958	27.292219	-62.956009
242.761810	71.925400	215.518890	21.451365
243.220993	39.693733	27.292219	-3.361760
243.680115	-47.171146	205.626709	-50.535473
244.139221	2.481545	-19.857071	-57.987560
244.598282	-17.374418	22.330835	-50.535473
245.057297	-67.043938	-57.106766	-38.117718
245.516266	-81.953140	-37.237358	-38.117718
245.975189	-84.438271	-27.305115	-72.894310
246.434082	-89.409119	-67.044075	1.601645
246.892944	-119.242615	-32.270958	-117.637688
247.351761	-136.652664	-22.339691	-95.261612
247.810516	86.795677	299.538422	80.960648
248.269272	9.925827	54.571896	46.254108
248.727951	34.733521	284.719574	4.083258
249.186600	-14.892141	-34.754105	14.008533
249.645218	-39.720581	-81.953278	-60.471661
250.103790	-12.409834	111.571342	-45.568081
250.562317	-44.687473	-81.953278	11.527337
251.020813	-96.866043	-94.380386	-8.325582
251.479279	-7.445533	-64.559685	-70.409546
251.937668	-49.654930	22.330835	-33.151245
252.396057	96.707191	158.617111	76.003860
252.854385	9.925827	-47.171284	-33.151245
253.312683	17.369307	66.967735	-8.325582
253.770920	-79.467987	14.888115	21.451365
254.229126	-34.753971	-29.788054	-18.254616
254.687302	-54.622669	-24.822283	-40.601112
255.145432	14.888249	-27.305115	-50.535473
255.603500	-76.982933	-37.237358	-43.084476
256.061584	27.292219	-4.963809	-38.117718
256.519592	-72.013290	76.882530	-20.737171
256.977570	-37.237225	-84.438408	-72.894310
257.435455	-64.559555	-67.044075	-65.440460
257.893372	-44.687473	-32.270958	-62.956009
258.351196	44.653534	9.925827	-33.151245
258.808990	22.330971	47.133209	-18.254616
259.266754	-42.203907	-57.106766	-45.568081
259.724487	81.839378	314.353607	51.213497
260.182190	9.925827	34.733383	61.130768
260.639832	-17.374418	-44.687611	-135.047256
261.097443	-111.782791	-64.559685	-50.535473
261.554993	49.613056	101.662277	-107.691711
262.012512	19.850122	91.751572	-90.290398
262.469971	69.446754	84.317505	9.046171
262.927429	14.888249	27.292219	-5.843686
263.384827	27.292219	44.653534	-55.503426
263.842194	22.330971	-0.000135	-35.634430
264.299530	-2.481785	-67.044075	36.334225
264.756805	-79.467987	-39.720581	28.893261
265.214050	4.963121	62.009785	48.733852
265.671234	32.253189	264.955872	95.828682
266.128387	-2.481785	-4.963809	-75.379189
266.585510	-24.822149	-59.590965	-38.117718
267.042572	-9.927631	24.811581	-0.879938
267.499573	-12.409834	42.173615	-0.879938
267.956604	62.009785	158.617111	26.412823
268.413574	119.002182	309.415527	4.083258
268.870483	24.811714	99.184723	-35.634430
269.327362	-39.720581	-14.892141	-33.151245
269.784180	143.764648	180.889374	53.692902
270.240936	163.567261	161.092239	-13.289957
270.697693	-86.923637	-9.927766	6.564767
271.154419	-14.892141	-19.857071	-35.634430
271.611053	-121.729477	-94.380386	1.601645
272.067688	64.488876	193.259216	-13.289957
272.524292	-12.409834	44.653534	-38.117718
272.980835	47.133343	9.925827	11.527337
273.437347	27.292219	76.882530	23.932146
273.893799	-17.374418	-32.270958	-80.349121
274.350250	-37.237225	-37.237358	11.527337
274.806610	-44.687473	-24.822283	-127.585243
275.262939	94.229568	198.206573	-3.361760
275.719238	0.000000	94.229431	-15.772302
276.175507	-59.590828	14.888115	14.008533
276.631714	-2.481785	126.431839	78.482239
277.087891	-4.963674	37.213474	-67.924881
277.544067	-57.106766	-27.305115	-65.440460
278.000122	-62.075138	-27.305115	-53.019398
278.456177	94.229568	104.139732	18.970480
278.912201	44.653534	116.525200	-0.879938
279.368164	-67.043938	-57.106766	-60.471661
279.824097	-67.043938	-139.140411	-53.019398
280.279968	-22.339558	12.406956	-43.084476
280.735840	-94.380249	-22.339691	-43.084476
281.191620	-17.374418	9.925827	-57.987560
281.647400	14.888249	-72.013428	-65.440460
282.103149	2.481545	74.403946	-25.702457
282.558838	17.369307	54.571896	-5.843686
283.014465	9.925827	79.361000	-20.737171
283.470062	-34.753971	22.330835	16.489626
283.925629	-2.481785	44.653534	-43.084476
284.381134	-52.138680	-17.374554	-82.834312
284.836639	-79.467987	-9.927766	-62.956009
285.292053	-57.106766	86.795677	11.527337
285.747467	-76.982933	-52.138813	-43.084476
286.202820	-52.138680	-24.822283	-0.879938
286.658142	74.404083	71.925262	11.527337
287.113434	-12.409834	-9.927766	-5.843686
287.568634	37.213612	19.850122	-23.219830
288.023804	62.009785	282.249542	4.083258
288.478973	-79.467987	-54.622803	9.046171
288.934113	-37.237225	-19.857071	-18.254616
289.389130	-81.953140	-2.481920	-53.019398
289.844208	42.173752	-24.822283	4.083258
290.299164	19.850122	12.406956	-23.219830
290.754089	4.963121	-52.138813	-107.691711
291.208984	12.407091	71.925262	9.046171
291.663879	12.407091	64.488747	-3.361760
292.118683	-27.304979	-44.687611	-57.987560
292.573456	-17.374418	34.733383	-65.440460
293.028198	-39.720581	37.213474	-3.361760
293.482849	-52.138680	-49.654930	-85.319481
293.937561	-44.687473	34.733383	-57.987560
294.392151	156.142014	371.113037	38.814384
294.846741	57.051430	133.860718	-60.471661
295.301239	32.253189	-76.983070	-65.440460
295.755737	-81.953140	-9.927766	-65.440460
296.210175	-86.923637	-44.687611	-38.117718
296.664581	-17.374418	-67.044075	53.692902
297.118958	-86.923637	-69.528694	1.601645
297.573242	-34.753971	-139.140411	4.083258
298.027557	14.888249	27.292219	-57.987560
298.481812	-42.203907	39.693600	-30.668301
298.935974	71.925400	37.213474	-48.051792
299.390137	19.850122	104.139732	9.046171
299.844238	-91.894699	119.002045	63.609894
300.298340	-39.720581	-42.204041	98.306374
300.752350	-4.963674	-166.510941	9.046171
301.206360	-39.720581	24.811581	28.893261
301.660278	-42.203907	-32.270958	98.306374
302.114197	-67.043938	-37.237358	61.130768
302.568054	-19.856936	57.051296	194.855988
303.021881	34.733521	2.481545	140.410950
303.475677	44.653534	57.051296	135.459045
303.929413	24.811714	-17.374554	-50.535473
304.383118	101.662407	284.719574	31.373730
304.836761	-24.822149	-17.374554	-5.843686
305.290375	126.431976	178.415039	38.814384
305.743958	-52.138680	-47.171284	-82.834312
306.197510	-2.481785	-72.013428	61.130768
306.650970	86.795677	106.616943	31.373730
307.104431	-39.720581	-4.963809	73.525246
307.557800	54.572029	200.679962	-23.219830
308.011169	19.850122	-14.892141	-20.737171
308.464508	-86.923637	-12.409968	-13.289957
308.917755	-49.654930	-89.409248	-57.987560
309.371063	-24.822149	-37.237358	-23.219830
309.824219	-62.075138	59.530590	6.564767
310.277374	-64.559555	-52.138813	-3.361760
310.730499	-44.687473	19.850122	-8.325582
311.183563	0.000000	217.991592	31.373730
311.636597	-39.720581	4.962986	63.609894
312.089569	-94.380249	-12.409968	207.223022
312.542511	101.662407	526.327087	476.220154
312.995422	-4.963674	-76.983070	574.652161
313.448273	0.000000	39.693600	709.757751
313.901093	14.888249	84.317505	456.515839
314.353882	71.925400	190.785385	352.969086
314.806580	-14.892141	136.336853	78.482239
315.259308	-32.270958	91.751572	63.609894
315.711975	-49.654930	24.811581	-8.325582
316.164581	2.481545	217.991592	100.783974
316.617126	-2.481785	57.051296	56.172337
317.069672	19.850122	24.811581	41.294441
317.522156	-2.481785	195.732941	-20.737171
317.974579	-17.374418	-27.305115	113.170128
318.427002	-22.339558	66.967735	6.564767
318.879333	71.925400	203.153381	41.294441
319.331665	-12.409834	59.530590	-72.894310
319.783936	0.000000	29.772621	-0.879938
320.236176	24.811714	-0.000135	-23.219830
320.688354	-14.892141	69.446617	-23.219830
321.140503	9.925827	12.406956	-3.361760
321.592651	47.133343	141.288681	-0.879938
322.044647	14.888249	54.571896	9.046171
322.496704	-42.203907	94.229431	-35.634430
322.948639	-22.339558	17.369171	-62.956009
323.400604	-4.963674	180.889374	-0.879938
323.852509	49.613056	267.426605	61.130768
324.304352	-91.894699	91.751572	-48.051792
324.756165	42.173752	245.185760	28.893261
325.207916	-49.654930	99.184723	-15.772302
325.659668	-44.687473	109.094193	-53.019398
326.111328	-29.787918	195.732941	43.774395
326.562988	-52.138680	123.955292	16.489626
327.014557	-49.654930	262.484924	46.254108
327.466156	84.317642	417.963135	26.412823
327.917664	-94.380249	232.826202	28.893261
328.369110	0.000000	183.363449	41.294441
328.820557	29.772757	213.045959	-55.503426
329.271942	17.369307	215.518890	51.213497
329.723297	-37.237225	264.955872	105.738716
330.174561	-69.528564	297.068848	-23.219830
330.625854	17.369307	339.037903	-20.737171
331.077026	-64.559555	326.696899	26.412823
331.528229	22.330971	442.607208	182.486328
331.979370	-4.963674	526.327087	58.651672
332.430450	29.772757	415.498138	132.982880
332.881500	-54.622669	294.599152	23.932146
333.332489	49.613056	437.679077	105.738716
333.783478	62.009785	592.734131	328.290253
334.234406	-47.171146	255.071609	370.238556
334.685303	29.772757	462.315796	385.037170
335.136078	-32.270958	274.838562	303.601746
335.586914	29.772757	462.315796	113.170128
336.037659	47.133343	646.794495	98.306374
336.488342	-9.927631	413.033081	61.130768
336.939026	-62.075138	321.759918	38.814384
337.389648	-62.075138	319.291199	43.774395
337.840240	-19.856936	339.037903	56.172337
338.290771	-2.481785	395.775208	110.693184
338.741272	76.882660	521.405273	26.412823
339.191681	54.572029	717.989319	128.030365
339.642120	62.009785	636.968445	103.261459
340.092468	84.317642	548.470276	61.130768
340.542816	-7.445533	413.033081	14.008533
340.993103	-22.339558	568.146606	26.412823
341.443329	-7.445533	528.787842	33.854099
341.893555	-96.866043	405.637451	1.601645
342.343689	-24.822149	511.560822	76.003860
342.793793	-59.590828	595.192444	68.567841
343.243866	-59.590828	533.708740	43.774395
343.693878	-44.687473	457.389160	80.960648
344.143890	-7.445533	482.018311	-0.879938
344.593842	109.094330	732.709839	85.917160
345.043732	66.967865	546.010254	108.216003
345.493591	59.530727	587.817322	85.917160
345.943359	-104.323944	538.629639	31.373730
346.393158	24.811714	523.866150	31.373730
346.842896	-44.687473	600.108704	95.828682
347.292542	-19.856936	668.897278	4.083258
347.742218	-4.963674	541.089966	-20.737171
348.191803	-9.927631	496.791260	26.412823
348.641357	-96.866043	587.817322	36.334225
349.090881	-37.237225	614.855103	63.609894
349.540314	-22.339558	617.312561	43.774395
349.989777	-17.374418	803.814514	93.351028
350.439148	-59.590828	575.523865	41.294441
350.888489	-54.622669	632.055176	41.294441
351.337799	37.213612	843.013428	26.412823
351.787048	-99.351952	720.442749	36.334225
352.236267	-57.106766	747.427246	73.525246
352.685425	-17.374418	720.442749	98.306374
353.134552	-42.203907	636.968445	26.412823
353.583649	-47.171146	852.809814	140.410950
354.032684	-54.622669	803.814514	167.639542
354.481659	94.229568	921.345154	73.525246
354.930634	-27.304979	891.980896	31.373730
355.379517	14.888249	843.013428	137.934982
355.828430	9.925827	862.604614	95.828682
356.277222	-27.304979	700.811218	16.489626
356.726013	-76.982933	698.356812	110.693184
357.174774	2.481545	651.706970	108.216003
357.623444	24.811714	762.141479	120.600639
358.072113	34.733521	602.566467	36.334225
358.520721	-74.498131	560.768738	80.960648
358.969299	-89.409119	624.684082	73.525246
359.417786	-69.528564	757.236938	66.088921
359.866302	-9.927631	909.111450	137.934982
360.314697	-37.237225	727.803284	120.600639
360.763123	17.369307	769.497498	95.828682
361.211456	-109.296486	820.966736	98.306374
361.659760	54.572029	722.896301	66.088921
362.108032	-39.720581	884.638123	95.828682
362.556244	-19.856936	840.564148	177.537842
363.004456	-52.138680	840.564148	212.169266
363.452576	-22.339558	1031.351929	579.569946
363.900696	-29.787918	833.215942	1417.860718
364.348663	-4.963674	965.368225	3582.232666
364.796722	-14.892141	958.032837	7742.686035
365.244690	29.772757	1033.794678	11163.645508
365.692596	-27.304979	1041.122070	11893.430664
366.140472	-29.787918	1199.704102	9578.721680
366.588287	7.444594	1224.070801	6830.073242
367.036102	-57.106766	1187.517700	4362.221191
367.483826	-74.498131	1053.333130	2153.211670
367.931549	17.369307	1141.190674	1010.941345
368.379181	-47.171146	1063.100220	591.862610
368.826843	22.330971	1092.393921	348.034149
369.274384	-37.237225	1031.351929	236.894028
369.721924	-59.590828	1194.829712	281.373810
370.169403	101.662407	1353.083252	180.012070
370.616821	-69.528564	1245.994263	209.696182
371.064270	12.407091	1197.266968	192.382233
371.511566	47.133343	1177.766968	177.537842
371.958923	42.173752	1233.815552	217.114944
372.406158	-17.374418	1168.015259	123.077316
372.853424	-12.409834	945.805725	73.525246
373.300568	86.795677	999.589661	68.567841
373.747711	4.963121	1087.512695	90.873131
374.194794	-54.622669	1028.909180	90.873131
374.641846	-39.720581	958.032837	105.738716
375.088898	-86.923637	982.481018	118.124001
375.535828	44.653534	1204.578247	18.970480
375.982758	-54.622669	1075.307373	78.482239
376.429596	91.751709	1202.141235	115.647110
376.876465	32.253189	1255.736084	110.693184
377.323242	14.888249	1214.325195	80.960648
377.769989	-32.270958	1338.489136	90.873131
378.216675	-47.171146	1374.968994	63.609894
378.663330	-72.013290	1326.325073	-5.843686
379.109985	-44.687473	1345.786499	56.172337
379.556519	22.330971	1518.289307	184.960495
380.003052	200.680099	1811.404907	132.982880
380.449524	-14.892141	1374.968994	170.114304
380.895996	-9.927631	1336.056519	33.854099
381.342377	-44.687473	1340.921509	105.738716
381.788727	-32.270958	1233.815552	100.783974
382.235046	-22.339558	1104.596436	-5.843686
382.681274	34.733521	1331.190918	147.838120
383.127533	-134.165283	865.053162	11.527337
383.573669	-27.304979	1050.891113	58.651672
384.019836	0.000000	1067.983398	78.482239
384.465912	-37.237225	1107.036377	33.854099
384.911957	2.481545	1204.578247	95.828682
385.357971	-62.075138	1163.138672	9.046171
385.803925	-79.467987	1146.068604	48.733852
386.249847	-19.856936	1292.255859	90.873131
386.695679	-14.892141	1304.425293	43.774395
387.141541	-52.138680	1124.115601	-0.879938
387.587311	49.613056	1316.592773	157.739639
388.033051	-47.171146	1284.953369	80.960648
388.478729	-29.787918	1258.171143	98.306374
388.924408	-49.654930	1219.198242	11.527337
389.369995	-22.339558	1319.026001	33.854099
389.815552	-29.787918	1306.859131	80.960648
390.261078	-37.237225	1566.812500	217.114944
390.706543	17.369307	1625.000977	370.238556
391.152008	-69.528564	1583.788574	194.855988
391.597351	19.850122	1515.862305	246.781189
392.042725	-7.445533	1508.580811	207.223022
392.487976	14.888249	1304.425293	83.438950
392.933289	-96.866043	1072.866089	-3.361760
393.378479	-27.304979	1067.983398	80.960648
393.823639	0.000000	1182.642578	41.294441
394.268768	-67.043938	1070.424927	110.693184
394.713837	59.530727	1535.275757	78.482239
395.158905	29.772757	1438.159912	83.438950
395.603851	-19.856936	1406.571167	-62.956009
396.048798	-101.837822	1457.592651	-30.668301
396.493683	0.000000	1440.589355	28.893261
396.938568	71.925400	1311.725952	100.783974
397.383392	71.925400	1426.011719	73.525246
397.828156	-96.866043	1426.011719	1.601645
398.272888	-12.409834	1646.810669	68.567841
398.717560	-37.237225	1852.501587	53.692902
399.162201	-29.787918	2004.624146	71.046524
399.606781	-89.409119	2067.324707	180.012070
400.051361	-24.822149	2120.343262	23.932146
400.495819	62.009785	2129.979248	88.395126
400.940308	-104.323944	2182.959473	85.917160
401.384705	0.000000	2435.378662	88.395126
401.829102	76.882660	2579.299561	192.382233
402.273438	32.253189	2399.362549	135.459045
402.717682	2.481545	2363.332031	130.506607
403.161926	-39.720581	2296.036133	276.433105
403.606110	-64.559555	2406.566650	805.396362
404.050293	24.811714	2519.359863	2369.687256
404.494385	-106.810158	2444.980225	4867.436523
404.938446	-86.923637	2336.900391	6275.177246
405.382477	-91.894699	2365.734375	5743.387695
405.826447	57.051430	2428.176270	3868.889404
406.270386	12.407091	2384.952148	2244.677490
406.714233	128.908401	2507.367432	1366.812378
407.158081	-27.304979	2305.652588	1040.256226
407.601868	-91.894699	2370.539307	1344.924194
408.045624	19.850122	2432.977783	1439.727905
408.489319	29.772757	2598.472168	1250.001953
408.933014	17.369307	2744.530273	812.747803
409.376617	17.369307	2512.164551	483.607697
409.820190	-12.409834	2375.343750	301.132324
410.263702	-12.409834	2490.574951	182.486328
410.707184	-42.203907	2528.952881	234.421951
411.150635	-47.171146	2557.725586	204.749893
411.594025	-22.339558	2521.758545	31.373730
412.037384	-54.622669	2586.489258	125.553894
412.480682	-72.013290	2742.137939	105.738716
412.923981	-39.720581	2696.667725	167.639542
413.367126	-49.654930	2624.827148	145.362579
413.810333	-32.270958	2615.244629	93.351028
414.253479	-12.409834	2751.708008	46.254108
414.696533	-14.892141	2749.315186	88.395126
415.139587	-37.237225	2646.385010	115.647110
415.582581	57.051430	3040.742676	170.114304
416.025543	2.481545	2844.963379	157.739639
416.468414	-94.380249	2856.912598	105.738716
416.911285	-32.270958	2797.151611	162.689865
417.354065	64.488876	3047.898438	219.587723
417.796875	-67.043938	2734.960205	110.693184
418.239594	-181.445679	2773.236816	73.525246
418.682281	59.530727	2933.352295	23.932146
419.124908	-106.810158	2864.081543	90.873131
419.567505	54.572029	3090.817871	63.609894
420.010071	-69.528564	2766.060791	73.525246
420.452545	-2.481785	2916.636230	61.130768
420.895020	-7.445533	2775.628418	147.838120
421.337372	39.693733	3057.437256	177.537842
421.779785	116.525337	3309.895752	100.783974
422.222107	52.092663	3326.544922	147.838120
422.664368	22.330971	2945.290283	6.564767
423.106628	-42.203907	2923.800537	157.739639
423.548798	-67.043938	2813.888672	76.003860
423.990967	-64.559555	2916.636230	85.917160
424.433044	7.444594	2890.362305	150.313675
424.875092	-54.622669	2890.362305	120.600639
425.317078	-37.237225	2997.801270	113.170128
425.759064	-52.138680	2883.195557	160.214798
426.200989	-42.203907	2852.133301	130.506607
426.642853	-22.339558	2780.411865	58.651672
427.084686	34.733521	2909.471680	93.351028
427.526459	24.811714	3000.187256	130.506607
427.968201	-12.409834	3052.668213	90.873131
428.409912	7.444594	2722.995361	48.733852
428.851563	2.481545	2887.973633	108.216003
429.293121	-9.927631	2878.417236	135.459045
429.734711	-29.787918	2622.431641	145.362579
430.176239	-7.445533	2620.035645	110.693184
430.617706	-57.106766	2392.157471	147.838120
431.059113	-27.304979	2447.380859	147.838120
431.500488	-37.237225	2588.886230	80.960648
431.941833	-9.927631	2950.065430	214.642090
432.383087	-116.755981	3014.503174	132.982880
432.824341	24.811714	3245.651123	266.550659
433.265533	-62.075138	3086.050049	436.805481
433.706726	-47.171146	3081.282227	717.119446
434.147827	12.407091	3140.867432	1235.387939
434.588867	-27.304979	3088.434082	2054.415527
435.029877	-19.856936	3264.690918	3883.083496
435.470825	-69.528564	3452.514404	8580.725586
435.911804	-17.374418	3687.402588	12784.287109
436.352661	29.772757	3765.580811	13770.492188
436.793518	-17.374418	3592.562012	10462.023438
437.234283	22.330971	3891.018066	6936.149414
437.675049	-119.242615	3578.328857	4341.022949
438.115723	-54.622669	3604.422363	2722.146973
438.556396	-106.810158	3502.383789	1393.556152
438.997040	49.613056	3592.562012	807.846924
439.437561	123.955429	3770.317139	599.237305
439.878113	-19.856936	3680.291992	328.290253
440.318573	2.481545	3722.945068	283.843872
440.759033	-24.822149	3760.844238	278.903503
441.199341	27.292219	3886.287109	224.532806
441.639709	-62.075138	3701.620850	142.886810
442.079956	42.173752	3864.996338	194.855988
442.520264	-29.787918	3841.334229	212.169266
442.960510	49.613056	4002.132080	132.982880
443.400604	37.213612	3846.066895	177.537842
443.840759	-39.720581	3775.052490	175.063385
444.280762	-62.075138	3725.313965	140.410950
444.720825	-2.481785	4063.550293	170.114304
445.160767	-17.374418	3895.748779	80.960648
445.600739	-64.559555	3734.790039	155.264374
446.040558	12.407091	3765.580811	95.828682
446.480438	-69.528564	3869.727539	130.506607
446.920258	-47.171146	4018.670898	125.553894
447.359955	-79.467987	4141.453613	207.223022
447.799713	-91.894699	4301.806641	118.124001
448.239319	-42.203907	4398.377441	160.214798
448.678955	-14.892141	4579.516602	51.213497
449.118500	-37.237225	4945.614258	202.276535
449.558014	-19.856936	4964.356934	180.012070
449.997498	-54.622669	5034.615723	157.739639
450.436951	-144.115707	5214.751953	120.600639
450.876343	-14.892141	5354.926758	182.486328
451.315674	37.213612	5345.586914	160.214798
451.754974	-62.075138	4966.699707	145.362579
452.194183	14.888249	5200.725098	167.639542
452.633392	-91.894699	4797.908203	150.313675
453.072510	-59.590828	4736.895020	88.395126
453.511688	2.481545	4457.221191	93.351028
453.950684	17.369307	4701.679688	132.982880
454.389740	84.317642	4797.908203	147.838120
454.828735	111.571480	4929.211914	113.170128
455.267639	9.925827	4696.983398	137.934982
455.706543	34.733521	4711.071289	137.934982
456.145325	2.481545	4746.283203	187.434540
456.584137	190.785522	4800.253906	115.647110
457.022858	-101.837822	4581.867676	58.651672
457.461578	4.963121	4591.268555	56.172337
457.900208	64.488876	4417.210938	130.506607
458.338867	-32.270958	4431.333496	73.525246
458.777405	-91.894699	4363.056641	-5.843686
459.215912	47.133343	4494.864746	135.459045
459.654388	62.009785	4603.019531	167.639542
460.092773	131.384613	4443.101563	128.030365
460.531189	-34.753971	4146.172852	41.294441
460.969513	0.000000	4436.041016	160.214798
461.407806	-7.445533	4348.924805	140.410950
461.846008	47.133343	4689.938965	137.934982
462.284241	-42.203907	4558.359375	98.306374
462.722351	-67.043938	4711.071289	56.172337
463.160461	42.173752	4889.367676	85.917160
463.598541	12.407091	5020.566895	110.693184
464.036530	27.292219	5086.111328	100.783974
464.474518	19.850122	5008.858887	108.216003
464.912384	-44.687473	5207.739258	145.362579
465.350281	-4.963674	5541.569336	103.261459
465.788086	-9.927631	6236.600586	212.169266
466.225891	-17.374418	6740.888184	142.886810
466.663605	-99.351952	7321.329102	120.600639
467.101318	7.444594	7901.460938	165.164688
467.539001	-32.270958	7960.934570	53.692902
467.976563	22.330971	8034.096191	175.063385
468.414124	29.772757	7516.522949	189.908386
468.851593	-74.498131	7401.739258	108.216003
469.289063	-9.927631	7056.772461	187.434540
469.726440	-17.374418	6690.088379	128.030365
470.163849	89.273743	6563.000000	167.639542
470.601135	-37.237225	6324.650879	113.170128
471.038422	-57.106766	6262.095215	165.164688
471.475677	34.733521	6368.652344	187.434540
471.912811	-154.067993	6213.418945	100.783974
472.350006	-27.304979	6465.864258	180.012070
472.787048	-4.963674	6180.957520	113.170128
473.224121	76.882660	6234.282715	187.434540
473.661072	-32.270958	6278.316406	167.639542
474.098053	52.092663	6301.485352	271.492157
474.534943	-4.963674	6606.917969	184.960495
474.971802	-24.822149	7047.560547	125.553894
475.408630	22.330971	7296.047363	78.482239
475.845367	4.963121	7194.869629	113.170128
476.282104	54.572029	7072.891113	130.506607
476.718750	-29.787918	6685.469238	202.276535
477.155426	32.253189	7121.236816	281.373810
477.591949	17.369307	6759.354980	219.587723
478.028503	34.733521	6703.944824	281.373810
478.464966	-27.304979	6782.435547	165.164688
478.901428	19.850122	6655.440430	182.486328
479.337860	-62.075138	6671.610840	194.855988
479.774170	14.888249	6890.857910	194.855988
480.210510	-39.720581	6823.970215	227.005280
480.646698	14.888249	6932.356934	234.421951
481.082947	-69.528564	7137.347168	162.689865
481.519073	-29.787918	7364.986328	217.114944
481.955200	-34.753971	7420.110352	189.908386
482.391266	9.925827	7539.467773	229.477646
482.827301	-44.687473	7605.985352	271.492157
483.263306	19.850122	7940.350586	256.666656
483.699188	14.888249	7926.626465	259.137848
484.135101	81.839378	8011.236816	264.079926
484.570923	-29.787918	7803.042480	286.313995
485.006744	-57.106766	7919.763672	315.947144
485.442413	12.407091	7548.644531	251.724121
485.878174	119.002182	7603.690918	298.662933
486.313782	37.213612	7254.666016	194.855988
486.749390	22.330971	7289.150879	249.252640
487.184998	-12.409834	7449.960449	283.843872
487.620453	19.850122	7821.358887	278.903503
488.055939	-7.445533	7860.270996	296.193329
488.491333	-52.138680	7821.358887	162.689865
488.926727	-52.138680	8148.329590	207.223022
489.362030	34.733521	8269.310547	155.264374
489.797302	-39.720581	8554.212891	249.252640
490.232513	17.369307	8811.250977	298.662933
490.667755	37.213612	8749.879883	328.290253
491.102905	64.488876	9330.689453	650.835938
491.537964	-24.822149	8963.428711	753.915222
491.973022	44.653534	9038.319336	842.145142
492.407990	19.850122	9085.956055	771.079895
492.842957	24.811714	9371.438477	626.270142
493.277832	-34.753971	9097.294922	454.052338
493.712738	-22.339558	9289.930664	407.228821
494.147491	-57.106766	9215.173828	362.837952
494.582275	-74.498131	9624.717773	269.021454
495.017029	-2.481785	9902.359375	234.421951
495.451660	9.925827	10073.648438	343.098663
495.886292	-44.687473	10219.986328	254.195511
496.320831	9.925827	11289.641602	343.098663
496.755402	14.888249	12893.645508	370.238556
497.189850	-27.304979	15337.647461	380.104706
497.624298	52.092663	19346.226563	311.009308
498.058655	59.530727	23482.644531	296.193329
498.493042	-7.445533	25974.044922	320.884735
498.927368	24.811714	26038.333984	286.313995
499.361572	66.967865	24243.785156	360.370850
499.795807	49.613056	21292.919922	306.071075
500.229919	27.292219	18159.058594	389.969360
500.664063	54.572029	15625.009766	357.903778
501.098083	-29.787918	13457.762695	150.313675
501.532104	12.407091	11724.886719	224.532806
501.966064	2.481545	10541.432617	128.030365
502.399994	-4.963674	9875.295898	291.253784
502.833893	9.925827	9452.898438	328.290253
503.267700	-59.590828	9067.810547	301.132324
503.701477	-27.304979	8833.975586	254.195511
504.135193	-116.755981	8369.665039	266.550659
504.568909	19.850122	8191.712402	217.114944
505.002502	-9.927631	8365.105469	184.960495
505.436127	-32.270958	8171.164063	222.060379
505.869629	24.811714	8344.583984	214.642090
506.303162	32.253189	8652.081055	288.783997
506.736603	-84.438271	8463.110352	219.587723
507.169983	-7.445533	8547.382813	236.894028
507.603363	-67.043938	8326.338867	194.855988
508.036621	-47.171146	8433.488281	150.313675
508.469940	-29.787918	8469.944336	182.486328
508.903107	-54.622669	8638.428711	261.608917
509.336304	-146.603638	8718.045898	286.313995
509.769379	-12.409834	8711.223633	251.724121
510.202484	24.811714	8779.431641	286.313995
510.635529	-29.787918	8656.631836	313.478333
511.068481	-22.339558	8902.124023	222.060379
511.501434	-19.856936	8995.205078	266.550659
511.934265	-81.953140	8865.782227	288.783997
512.367126	52.092663	9174.381836	360.370850
512.799927	-76.982933	8561.043945	278.903503
513.232605	9.925827	8636.154297	333.226746
513.665344	79.361000	8690.753906	318.415985
514.097961	-14.892141	9067.810547	194.855988
514.530579	-76.982933	10141.207031	175.063385
514.963135	-19.856936	11903.127930	273.962616
515.395691	79.361000	13081.851563	399.832520
515.828064	64.488876	13307.475586	296.193329
516.260498	-74.498131	12199.057617	259.137848
516.692871	-54.622669	10662.642578	214.642090
517.125183	91.751709	9825.666016	251.724121
517.557373	34.733521	9206.111328	219.587723
517.989624	42.173752	8954.347656	296.193329
518.421753	0.000000	8415.255859	325.821808
518.853943	-126.703529	8143.761719	261.608917
519.286072	2.481545	8107.216309	251.724121
519.718018	-89.409119	8504.114258	278.903503
520.150024	-34.753971	8326.338867	217.114944
520.581909	-42.203907	8531.442383	350.501587
521.013855	-2.481785	8095.793457	93.351028
521.445679	-84.438271	8353.704102	212.169266
521.877502	-129.190582	8381.063477	234.421951
522.309204	19.850122	8410.697266	214.642090
522.740906	-7.445533	8442.603516	244.309525
523.172546	-49.654930	8267.028320	254.195511
523.604187	-52.138680	8164.314453	184.960495
524.035767	-9.927631	8690.753906	259.137848
524.467224	-101.837822	8066.091309	209.696182
524.898682	-4.963674	8212.257813	227.005280
525.330078	54.572029	8114.069336	217.114944
525.761475	-54.622669	7995.233887	254.195511
526.192749	-79.467987	7679.342773	152.789139
526.624023	-62.075138	7208.671875	348.034149
527.055237	0.000000	7325.925781	207.223022
527.486389	-99.351952	7164.961914	264.079926
527.917542	-9.927631	7615.156250	313.478333
528.348572	99.184853	7470.621582	254.195511
528.779663	-54.622669	7523.407227	249.252640
529.210571	-54.622669	7557.820313	330.758606
529.641541	-12.409834	7387.957520	229.477646
530.072388	-52.138680	7282.254395	266.550659
530.503235	24.811714	7661.007813	362.837952
530.934082	-89.409119	7530.291016	219.587723
531.364746	-24.822149	7459.143555	227.005280
531.795532	7.444594	7514.228027	338.162964
532.226135	-2.481785	7277.657227	246.781189
532.656738	4.963121	6987.667480	335.694916
533.087280	14.888249	7238.569336	402.297943
533.517822	49.613056	7148.853516	325.821808
533.948242	34.733521	7321.329102	313.478333
534.378662	-86.923637	7010.706543	335.694916
534.809082	-22.339558	7348.904297	392.435211
535.239319	57.051430	7514.228027	461.442413
535.669617	0.000000	7775.563965	547.598145
536.099792	-79.467987	7647.253418	498.380249
536.529968	-74.498131	7560.114258	530.376038
536.960083	12.407091	7296.047363	550.057861
537.390137	71.925400	7649.546875	554.977539
537.820190	-22.339558	7266.162598	572.193115
538.250183	-37.237225	7259.264160	515.610718
538.680115	-67.043938	7358.094727	527.915344
539.109985	99.184853	7729.752930	577.111084
539.539795	-12.409834	7171.863770	488.532227
539.969543	12.407091	7095.914551	449.125183
540.399292	57.051430	7093.612793	458.979218
540.828979	32.253189	7286.852539	446.661407
541.258606	-76.982933	6950.796387	444.197571
541.688171	-19.856936	6858.571777	441.733734
542.117737	-69.528564	7100.519531	458.979218
542.547302	-74.498131	7006.099121	483.607697
542.976685	-101.837822	6830.891113	454.052338
543.406128	22.330971	7013.009766	574.652161
543.835388	39.693733	6911.608887	414.624268
544.264771	-79.467987	7031.437988	636.097534
544.693970	12.407091	7123.538086	935.155457
545.123230	2.481545	7128.141113	3285.262695
545.552307	-57.106766	7472.916992	18438.089844
545.981506	0.000000	7832.805176	33518.332031
546.410583	-99.351952	7775.563965	43469.445313
546.839539	-144.115707	7791.594238	36082.562500
547.268555	-52.138680	7619.742676	24212.085938
547.697449	86.795677	7803.042480	17817.259766
548.126282	-59.590828	7479.803711	13479.071289
548.555054	47.133343	7583.051270	10093.120117
548.983887	-86.923637	7809.912109	6959.198242
549.412598	59.530727	7766.403320	4470.504883
549.841309	96.707191	8155.180664	2703.000244
550.269958	-32.270958	8237.364258	1812.965576
550.698486	29.772757	8435.766602	1298.694946
551.127075	27.292219	8576.978516	996.279419
551.555481	-116.755981	8608.845703	873.978271
551.983948	22.330971	8540.551758	697.486694
552.412292	-17.374418	8947.537109	584.487183
552.840698	0.000000	8883.954102	668.026733
553.268860	32.253189	8868.053711	572.193115
553.697205	4.963121	9006.552734	483.607697
554.125366	22.330971	9206.111328	554.977539
554.553467	-94.380249	8865.782227	481.145233
554.981628	7.444594	8922.561523	439.269653
555.409607	-76.982933	9203.843750	471.294586
555.837646	71.925400	9040.587891	362.837952
556.265564	59.530727	8992.935547	424.483582
556.693481	-67.043938	9215.173828	380.104706
557.121338	34.733521	9172.114258	355.436462
557.549133	-64.559555	9004.283203	382.571075
557.976929	-114.269333	9135.843750	382.571075
558.404602	99.184853	9654.086914	394.901062
558.832275	-9.927631	9330.689453	471.294586
559.259888	-27.304979	9423.487305	377.638275
559.687439	-54.622669	9803.101563	407.228821
560.114929	-76.982933	9818.896484	335.694916
560.542419	-12.409834	9733.128906	380.104706
560.969788	-29.787918	10044.363281	434.341400
561.397156	-37.237225	10336.955078	426.948090
561.824524	-81.953140	10042.110352	387.503326
562.251770	-49.654930	9979.013672	436.805481
562.679016	-59.590828	10134.451172	434.341400
563.106140	-2.481785	10327.960938	387.503326
563.533264	14.888249	10332.458008	392.435211
563.960327	-42.203907	10586.335938	431.877045
564.387329	22.330971	10705.267578	397.366852
564.814331	-7.445533	10965.252930	311.009308
565.241272	-57.106766	11077.185547	281.373810
565.668213	29.772757	12303.518555	444.197571
566.094971	54.572029	13647.685547	308.540161
566.521790	-39.720581	15410.056641	414.624268
566.948425	-119.242615	18548.167969	431.877045
567.375183	17.369307	21946.949219	434.341400
567.801819	-47.171146	29329.652344	456.515839
568.228394	47.133343	38898.988281	572.193115
568.654846	-57.106766	49419.261719	655.748108
569.081421	84.317642	54474.992188	537.757385
569.507874	62.009785	52715.976563	488.532227
569.934265	34.733521	46077.132813	520.532837
570.360596	-2.481785	38351.503906	417.089264
570.786865	-81.953140	31744.052734	424.483582
571.213074	-2.481785	26843.710938	439.269653
571.639282	49.613056	22832.925781	473.757416
572.065430	12.407091	19562.765625	473.757416
572.491516	-84.438271	16637.007813	471.294586
572.917603	-54.622669	14661.090820	567.274719
573.343567	-29.787918	13711.694336	486.069916
573.769531	-59.590828	12946.804688	572.193115
574.195435	69.446754	12844.905273	582.028748
574.621277	-79.467987	12290.186523	584.487183
575.047119	-4.963674	12285.742188	896.008240
575.472839	-141.628006	12176.824219	1220.770996
575.898560	37.213612	12889.215820	2671.878174
576.324158	-94.380249	12791.720703	9178.112305
576.749817	12.407091	13353.898438	17128.484375
577.175293	-42.203907	13446.714844	22020.849609
577.600830	-44.687473	13634.440430	20012.724609
578.026306	89.273743	14361.876953	15464.125000
578.451721	19.850122	14619.306641	18206.375000
578.877136	-62.075138	15155.462891	23089.708984
579.302429	-2.481785	15664.478516	25711.751953
579.727661	-49.654930	16838.320313	22124.101563
580.152832	-32.270958	17273.603516	15031.710938
580.578064	-74.498131	18340.496094	10594.519531
581.003113	-86.923637	18823.625000	7960.123047
581.428223	-42.203907	19934.712891	6103.584961
581.853271	-34.753971	21121.875000	4331.601074
582.278198	-72.013290	22414.994141	3001.727295
582.703125	-34.753971	23934.746094	1895.136963
583.127930	-57.106766	25066.039063	1354.653198
583.552795	128.908401	26783.767578	1013.384705
583.977539	-9.927631	27701.267578	788.240295
584.402283	-49.654930	29516.609375	643.467285
584.826965	-37.237225	31134.587891	692.577515
585.251587	44.653534	32575.386719	552.517761
585.676208	22.330971	33281.625000	574.652161
586.100647	-42.203907	33916.261719	574.652161
586.525208	69.446754	33332.683594	660.659973
586.949524	-27.304979	30778.574219	618.898499
587.373962	2.481545	27221.261719	574.652161
587.798218	-104.323944	22472.162109	490.994385
588.222534	-14.892141	18156.873047	569.734009
588.646729	-49.654930	13991.808594	429.412598
589.070984	-86.923637	11224.815430	542.677979
589.495117	-37.237225	9461.947266	493.456482
589.919128	9.925827	8125.490723	515.610718
590.343201	12.407091	7782.434570	493.456482
590.767151	-91.894699	8344.583984	468.831635
591.191101	14.888249	10195.231445	498.380249
591.614990	7.444594	12709.700195	493.456482
592.038818	-62.075138	15964.760742	527.915344
592.462524	-57.106766	20083.539063	510.688232
592.886292	27.292219	23767.080078	702.395203
593.310059	81.839378	26932.527344	766.176331
593.733582	-14.892141	29227.271484	869.082031
594.157227	-9.927631	31032.242188	1064.676270
594.580750	-4.963674	32179.818359	1003.610840
595.004272	-9.927631	33115.117188	1047.583130
595.427673	-17.374418	33434.781250	800.495239
595.851074	-84.438271	33556.847656	714.665588
596.274353	-19.856936	33208.367188	712.211731
596.697632	-49.654930	32328.732422	655.748108
597.120911	29.772757	31477.169922	579.569946
597.544067	39.693733	31105.664063	599.237305
597.967224	-29.787918	30233.316406	554.977539
598.390320	0.000000	29354.134766	463.905609
598.813354	39.693733	28570.828125	518.071838
599.236328	-104.323944	27472.337891	414.624268
599.659241	-22.339558	26834.830078	466.368744
600.082153	-37.237225	26095.978516	436.805481
600.505005	12.407091	24968.703125	389.969360
600.927795	-57.106766	24318.869141	288.783997
601.350525	-34.753971	23566.412109	402.297943
601.773254	2.481545	22663.505859	412.159149
602.195862	-109.296486	22061.169922	328.290253
602.618408	-42.203907	21336.787109	377.638275
603.040955	37.213612	21084.603516	365.304962
603.463440	-64.559555	20258.667969	422.018860
603.885925	-34.753971	20017.876953	355.436462
604.308350	7.444594	19499.332031	333.226746
604.730652	-44.687473	18766.781250	360.370850
605.152893	7.444594	18355.798828	333.226746
605.575195	-104.323944	17999.482422	404.763428
605.997375	-47.171146	17271.417969	362.837952
606.419495	-79.467987	16921.457031	357.903778
606.841553	24.811714	16556.029297	276.433105
607.263672	-52.138680	16078.686523	325.821808
607.685608	7.444594	16304.269531	449.125183
608.107605	-64.559555	15640.358398	382.571075
608.529480	-84.438271	15475.870117	522.993774
608.951294	9.925827	15100.569336	655.748108
609.373108	-24.822149	14518.124023	638.554199
609.794800	-69.528564	14377.286133	550.057861
610.216553	-24.822149	14113.020508	562.356323
610.638123	37.213612	14062.338867	643.467285
611.059753	-22.339558	13535.075195	532.836609
611.481262	-44.687473	13700.659180	591.862610
611.902832	-54.622669	13356.108398	567.274719
612.324219	-29.787918	13269.887695	604.153015
612.745605	-42.203907	13258.832031	665.571472
613.166931	-54.622669	12840.474609	641.010803
613.588196	-72.013290	12918.011719	709.757751
614.009460	-64.559555	12731.871094	834.797119
614.430664	-47.171146	12625.427734	1298.694946
614.851807	42.173752	13960.946289	1706.503784
615.272827	19.850122	16113.733398	2131.534424
615.693909	9.925827	19243.439453	2309.608643
616.114929	-47.171146	20817.197266	2191.735107
616.535889	-19.856936	19801.232422	1718.609009
616.956787	-42.203907	17835.525391	1444.586548
617.377563	19.850122	16028.298828	1420.290771
617.798340	49.613056	14476.319336	1349.788818
618.219055	-19.856936	13630.025391	1638.682617
618.639832	2.481545	12736.304688	2088.163574
619.060364	19.850122	11989.954102	2679.061523
619.481018	-7.445533	11472.805664	3082.821045
619.901611	-111.782791	10938.377930	2769.997070
620.322083	-42.203907	10714.239258	2398.511230
620.742493	-22.339558	10375.174805	1861.311646
621.162842	-12.409834	9794.074219	1498.010864
621.583191	-27.304979	9913.634766	1413.000366
622.003418	-34.753971	9554.658203	1169.588989
622.423706	2.481545	9724.097656	908.243958
622.843872	-22.339558	9398.597656	756.367554
623.264038	4.963121	9138.111328	692.577515
623.684143	-84.438271	8779.431641	577.111084
624.104126	0.000000	8995.205078	547.598145
624.524170	-14.892141	8947.537109	513.149475
624.944031	-89.409119	8808.978516	520.532837
625.364014	17.369307	8690.753906	486.069916
625.783752	-39.720581	8410.697266	439.269653
626.203552	-57.106766	8253.337891	402.297943
626.623230	-67.043938	8271.591797	407.228821
627.042969	14.888249	8280.718750	478.682678
627.462585	24.811714	7759.532227	389.969360
627.882141	54.572029	7658.715820	333.226746
628.301697	-7.445533	7358.094727	323.353394
628.721130	64.488876	7548.644531	444.197571
629.140625	-106.810158	7095.914551	340.630951
629.559998	-62.075138	7424.704102	264.079926
629.979309	-17.374418	7183.367188	266.550659
630.398560	17.369307	6976.145996	303.601746
630.817810	-99.351952	7065.982910	234.421951
631.237000	-62.075138	6987.667480	301.132324
631.656067	-89.409119	6969.232910	251.724121
632.075195	-9.927631	6690.088379	192.382233
632.494202	-2.481785	6888.552246	194.855988
632.913208	-79.467987	6826.276855	224.532806
633.332092	49.613056	7006.099121	261.608917
633.750977	-89.409119	6805.512207	180.012070
634.169739	37.213612	6837.812012	254.195511
634.588562	-69.528564	6747.813477	180.012070
635.007263	12.407091	6943.881836	229.477646
635.425964	-9.927631	7148.853516	224.532806
635.844543	-59.590828	6978.450195	222.060379
636.263123	7.444594	6950.796387	212.169266
636.681641	-9.927631	6957.710449	266.550659
637.100037	-47.171146	7084.403320	184.960495
637.518494	24.811714	7289.150879	249.252640
637.936829	22.330971	7176.465820	246.781189
638.355164	-29.787918	7141.949707	214.642090
638.773438	-19.856936	7266.162598	239.366013
639.191650	-47.171146	7171.863770	100.783974
639.609863	-86.923637	7098.216797	212.169266
640.027893	0.000000	7098.216797	231.949783
640.445984	-47.171146	7065.982910	197.329529
640.863953	-32.270958	7003.795410	236.894028
641.281921	-86.923637	7084.403320	192.382233
641.699829	-99.351952	7019.920898	202.276535
642.117676	7.444594	7406.332031	184.960495
642.535461	-9.927631	6782.435547	170.114304
642.953247	-59.590828	7201.770508	209.696182
643.370972	64.488876	7417.814453	271.492157
643.788635	-57.106766	7148.853516	177.537842
644.206177	27.292219	7137.347168	184.960495
644.623718	-27.304979	7112.029297	187.434540
645.041260	-121.729477	6784.743652	207.223022
645.458618	-49.654930	7033.741211	269.021454
645.876099	-29.787918	6860.878418	184.960495
646.293396	7.444594	6983.059570	175.063385
646.710693	-64.559555	6874.715820	273.962616
647.127991	-52.138680	6539.878906	98.306374
647.545166	-17.374418	6747.813477	202.276535
647.962341	-47.171146	6377.913574	217.114944
648.379333	-94.380249	6477.431641	115.647110
648.796448	-39.720581	6308.435547	180.012070
649.213379	69.446754	6509.815918	209.696182
649.630310	-42.203907	6431.153809	157.739639
650.047180	-49.654930	6551.440430	162.689865
650.463989	-14.892141	6491.311523	194.855988
650.880859	44.653534	6625.404785	204.749893
651.297546	-47.171146	6502.877441	204.749893
651.714233	0.000000	6565.312012	224.532806
652.130859	7.444594	6526.004883	278.903503
652.547485	-2.481785	6424.210938	234.421951
652.963928	71.925400	6793.974121	194.855988
653.380432	-42.203907	6634.647461	249.252640
653.796814	-69.528564	6597.673340	170.114304
654.213196	4.963121	6669.300781	231.949783
654.629578	-12.409834	6761.663574	214.642090
655.045837	76.882660	6694.707031	234.421951
655.462036	-4.963674	6458.922852	165.164688
655.878174	7.444594	6359.390137	249.252640
656.294312	-57.106766	6025.488281	184.960495
656.710327	-89.409119	5981.363281	165.164688
657.126404	-86.923637	6192.551758	140.410950
657.542358	101.662407	6544.503906	227.005280
657.958252	-9.927631	6322.333984	115.647110
658.374084	-69.528564	6269.047363	157.739639
658.789917	-19.856936	6650.820313	100.783974
659.205688	-2.481785	6662.370605	264.079926
659.621338	-64.559555	6616.161621	199.803085
660.037048	225.409470	7220.172363	276.433105
660.452637	-24.822149	6904.692383	204.749893
660.868164	76.882660	6969.232910	281.373810
661.283691	2.481545	6586.116699	150.313675
661.699158	-47.171146	6761.663574	137.934982
662.114502	-42.203907	6980.755371	157.739639
662.529846	-29.787918	6731.653320	100.783974
662.945129	34.733521	6586.116699	147.838120
663.360413	-64.559555	6625.404785	157.739639
663.775635	9.925827	6530.629883	135.459045
664.190674	-17.374418	6493.625000	128.030365
664.605835	84.317642	6987.667480	128.030365
665.020813	-42.203907	6817.048828	212.169266
665.435791	62.009785	6821.663574	162.689865
665.850769	-14.892141	6542.191406	123.077316
666.265625	0.000000	6777.819824	103.261459
666.680420	76.882660	6740.888184	202.276535
667.095215	37.213612	7125.839844	229.477646
667.509949	-32.270958	6789.359375	61.130768
667.924622	-29.787918	6664.680664	147.838120
668.339233	-29.787918	6560.687988	145.362579
668.753784	-34.753971	6563.000000	120.600639
669.168335	19.850122	6844.731934	135.459045
669.582825	52.092663	7107.424805	160.214798
669.997192	101.662407	6752.430176	207.223022
670.411560	-17.374418	6835.504883	222.060379
670.825867	-49.654930	6936.966797	207.223022
671.240173	37.213612	7148.853516	214.642090
671.654358	17.369307	6690.088379	197.329529
672.068481	-19.856936	6925.441406	254.195511
672.482605	-99.351952	6648.509766	184.960495
672.896667	-27.304979	6733.961914	128.030365
673.310669	24.811714	6634.647461	98.306374
673.724609	17.369307	6930.051758	207.223022
674.138489	-14.892141	6796.281738	4.083258
674.552307	-69.528564	6509.815918	68.567841
674.966064	-109.296486	6623.094238	48.733852
675.379822	17.369307	6927.746582	135.459045
675.793579	-81.953140	6572.247070	108.216003
676.207153	34.733521	6641.579102	180.012070
676.620789	-12.409834	6768.587891	175.063385
677.034241	54.572029	6604.606445	150.313675
677.447754	44.653534	6551.440430	150.313675
677.861206	84.317642	6662.370605	100.783974
678.274597	-7.445533	6558.375977	180.012070
678.687866	49.613056	6408.008789	165.164688
679.101135	66.967865	6618.472656	110.693184
679.514404	9.925827	6343.179688	108.216003
679.927551	12.407091	6262.095215	135.459045
680.340698	-7.445533	6071.917480	118.124001
680.753723	-86.923637	6236.600586	73.525246
681.166748	-22.339558	6141.528809	172.588821
681.579712	-49.654930	6148.487305	130.506607
681.992615	12.407091	6465.864258	125.553894
682.405457	148.715866	6303.802246	177.537842
682.818298	49.613056	6139.208496	150.313675
683.231018	131.384613	6206.463867	125.553894
683.643738	32.253189	6030.131348	135.459045
684.056335	-81.953140	5730.248047	110.693184
684.468994	-7.445533	5944.194336	105.738716
684.881531	-54.622669	5769.810547	63.609894
685.293945	-14.892141	5814.011230	170.114304
685.706482	-37.237225	5506.595703	145.362579
686.118774	24.811714	5520.586426	150.313675
686.531128	62.009785	5093.131836	160.214798
686.943481	-79.467987	4061.188477	165.164688
687.355713	57.051430	3808.198486	157.739639
687.767883	-64.559555	3226.607910	95.828682
688.179932	59.530727	3409.750244	98.306374
688.592041	-151.579865	3174.219727	123.077316
689.004089	-44.687473	3050.282959	71.046524
689.416016	-49.654930	3174.219727	100.783974
689.827881	-7.445533	3047.898438	202.276535
690.239868	-52.138680	3155.162842	241.837738
690.651611	-2.481785	3445.388184	288.783997
691.063354	-34.753971	3673.181641	271.492157
691.475098	-14.892141	3796.361816	293.723602
691.886719	4.963121	4174.486816	301.132324
692.298340	-2.481785	3950.135742	244.309525
692.709900	4.963121	4122.572754	204.749893
693.121460	59.530727	4172.127441	234.421951
693.532837	-44.687473	4174.486816	147.838120
693.944214	-27.304979	4127.293457	155.264374
694.355652	39.693733	4231.091309	152.789139
694.766846	-44.687473	4247.595703	61.130768
695.178101	-27.304979	4249.953125	36.334225
695.589294	-17.374418	4518.385742	184.960495
696.000366	-29.787918	4443.101563	140.410950
696.411438	-4.963674	4840.129883	137.934982
696.822510	-34.753971	4802.600586	105.738716
697.233459	-37.237225	4718.114746	165.164688
697.644409	-4.963674	4819.020996	241.837738
698.055298	-54.622669	4905.775391	402.297943
698.466064	-52.138680	4743.936523	478.682678
698.876831	-32.270958	4835.438965	518.071838
699.287537	9.925827	4727.505371	510.688232
699.698181	-7.445533	4617.119141	325.821808
700.108826	-136.652664	4664.104980	357.903778
700.519348	-67.043938	4360.701172	231.949783
700.929810	-44.687473	4497.217285	231.949783
701.340271	121.478790	4603.019531	355.436462
701.750732	143.764648	4558.359375	244.309525
702.161011	27.292219	4499.569336	234.421951
702.571350	-67.043938	4428.979980	241.837738
702.981567	47.133343	4758.019043	261.608917
703.391724	-14.892141	4556.008789	301.132324
703.801880	7.444594	4617.119141	333.226746
704.211914	-121.729477	4516.033691	241.837738
704.621948	-24.822149	4539.550293	308.540161
705.031921	-136.652664	4673.500000	370.238556
705.441895	-19.856936	4715.767090	278.903503
705.851746	-96.866043	4734.547363	286.313995
706.261536	86.795677	4901.088379	231.949783
706.671265	-72.013290	4605.370117	256.666656
707.081055	-72.013290	4696.983398	227.005280
707.490662	-2.481785	4802.600586	197.329529
707.900330	-2.481785	4854.199707	207.223022
708.309814	-62.075138	4520.737305	204.749893
708.719299	19.850122	4929.211914	239.366013
709.128784	128.908401	4983.097168	108.216003
709.538147	0.000000	4603.019531	192.382233
709.947510	9.925827	4783.831055	120.600639
710.356750	-29.787918	4480.749512	4.083258
710.766052	-34.753971	4760.365234	135.459045
711.175171	32.253189	4577.166016	98.306374
711.584290	62.009785	4743.936523	105.738716
711.993347	-49.654930	4565.412598	63.609894
712.402405	24.811714	4889.367676	276.433105
712.811401	-47.171146	4617.119141	66.088921
713.220276	-64.559555	4591.268555	132.982880
713.629150	-52.138680	4570.113770	76.003860
714.037964	-32.270958	4468.985840	23.932146
714.446777	12.407091	4532.496094	132.982880
714.855408	44.653534	4330.080078	110.693184
715.264099	-4.963674	4315.943848	115.647110
715.672668	-22.339558	4379.541016	130.506607
716.081177	24.811714	4186.281738	93.351028
716.489746	-47.171146	3803.464600	66.088921
716.898132	-89.409119	3668.441162	68.567841
717.306519	14.888249	3400.244385	105.738716
717.714844	-84.438271	3221.846436	48.733852
718.123108	9.925827	3086.050049	189.908386
718.531372	-47.171146	2952.453125	76.003860
718.939514	9.925827	2806.716309	184.960495
719.347595	-57.106766	2596.075439	36.334225
719.755676	-19.856936	2682.303955	192.382233
720.163696	-4.963674	2691.880127	33.854099
720.571716	2.481545	2639.199951	68.567841
720.979614	-29.787918	2816.279053	33.854099
721.387451	17.369307	2988.255859	108.216003
721.795227	14.888249	3378.853027	113.170128
722.202942	-49.654930	3207.560791	41.294441
722.610718	-57.106766	3359.835205	53.692902
723.018311	-27.304979	3055.052734	137.934982
723.425903	-49.654930	3064.591553	73.525246
723.833374	-59.590828	2916.636230	-67.924881
724.240906	-99.351952	2844.963379	18.970480
724.648376	-59.590828	2876.028320	56.172337
725.055725	22.330971	2780.411865	73.525246
725.463013	54.572029	2952.453125	78.482239
725.870300	-52.138680	2861.691650	61.130768
726.277466	37.213612	3024.045410	14.008533
726.684631	-19.856936	2746.923096	21.451365
727.091797	34.733521	2876.028320	53.692902
727.498779	76.882660	2749.315186	113.170128
727.905823	37.213612	2854.522949	38.814384
728.312805	47.133343	2993.028564	76.003860
728.719666	161.092377	2962.001465	78.482239
729.126526	-2.481785	3004.959473	115.647110
729.533264	-72.013290	2751.708008	53.692902
729.940063	57.051430	2868.860596	105.738716
730.346680	29.772757	2854.522949	63.609894
730.753357	-7.445533	2911.859619	33.854099
731.159851	7.444594	2828.231934	38.814384
731.566406	-44.687473	2828.231934	38.814384
731.972900	-54.622669	3109.887695	-3.361760
732.379272	-57.106766	3035.972900	83.438950
732.785645	-19.856936	3145.632813	108.216003
733.191895	-114.269333	3278.968018	137.934982
733.598206	4.963121	3507.132080	66.088921
734.004333	-76.982933	3597.306396	-25.702457
734.410522	84.317642	3841.334229	157.739639
734.816528	-67.043938	3573.583984	128.030365
735.222656	-27.304979	3535.616699	78.482239
735.628662	-32.270958	3599.678467	46.254108
736.034546	-9.927631	3630.508789	48.733852
736.440430	-131.677887	3654.218506	38.814384
736.846252	-44.687473	3519.001709	33.854099
737.252014	-39.720581	3770.317139	46.254108
737.657715	-32.270958	3850.799561	51.213497
738.063354	57.051430	3917.034180	118.124001
738.468933	-22.339558	3793.994873	53.692902
738.874512	-42.203907	3803.464600	36.334225
739.280029	-54.622669	3770.317139	100.783974
739.685486	7.444594	3876.825439	103.261459
740.090881	54.572029	4108.410645	66.088921
740.496216	-37.237225	3985.590332	71.046524
740.901550	49.613056	4143.813477	80.960648
741.306702	14.888249	4025.758789	71.046524
741.711914	99.184853	3914.669434	28.893261
742.117004	14.888249	4089.524170	18.970480
742.522095	-2.481785	3950.135742	4.083258
742.927124	-47.171146	3973.773438	41.294441
743.332031	0.000000	3992.680176	85.917160
743.737000	-81.953140	3964.319336	90.873131
744.141785	69.446754	3995.043213	184.960495
744.546631	-27.304979	4018.670898	53.692902
744.951355	-9.927631	3973.773438	41.294441
745.356079	44.653534	4051.741455	71.046524
745.760620	-99.351952	3793.994873	23.932146
746.165283	32.253189	3964.319336	212.169266
746.569824	-9.927631	3782.156494	53.692902
746.974243	-44.687473	3895.748779	23.932146
747.378723	-34.753971	3850.799561	100.783974
747.783020	-39.720581	3767.948730	-8.325582
748.187378	-29.787918	3611.537354	43.774395
748.591614	19.850122	3599.678467	147.838120
748.995850	7.444594	3846.066895	71.046524
749.399963	9.925827	3682.662598	31.373730
749.804077	-151.579865	3504.758301	48.733852
750.208130	-2.481785	3687.402588	85.917160
750.612122	-96.866043	3559.348389	26.412823
751.016052	-72.013290	3495.261230	120.600639
751.419922	-17.374418	3666.071045	43.774395
751.823792	57.051430	3587.818359	33.854099
752.227478	-42.203907	3504.758301	33.854099
752.631226	84.317642	3753.739502	76.003860
753.034851	-24.822149	3462.015381	76.003860
753.438477	-39.720581	3459.640381	76.003860
753.842102	-22.339558	3575.956787	-50.535473
754.245544	131.384613	3523.749023	150.313675
754.648987	-44.687473	3319.409424	63.609894
755.052368	-32.270958	3426.382813	36.334225
755.455750	-17.374418	3350.324707	-3.361760
755.859009	-27.304979	3198.036377	23.932146
756.262268	-9.927631	3183.747070	63.609894
756.665405	42.173752	3228.988525	135.459045
757.068542	49.613056	3171.837891	88.395126
757.471680	32.253189	3257.551270	108.216003
757.874634	-29.787918	3095.585693	-3.361760
758.277588	-44.687473	3174.219727	31.373730
758.680420	-44.687473	2813.888672	115.647110
759.083374	-9.927631	2538.544922	36.334225
759.486084	-84.438271	2002.211670	31.373730
759.888916	14.888249	1671.036865	-0.879938
760.291504	-47.171146	1065.541870	-53.019398
760.694214	-32.270958	909.111450	33.854099
761.096802	-76.982933	730.256592	-13.289957
761.499268	-19.856936	752.332458	58.651672
761.901733	-81.953140	597.650635	53.692902
762.304199	-39.720581	560.768738	-33.151245
762.706543	-49.654930	427.821899	4.083258
763.108826	-64.559555	358.778442	-10.807717
763.511108	54.572029	368.646240	11.527337
763.913208	4.963121	343.973541	78.482239
764.315369	-64.559555	341.505829	-13.289957
764.717529	-39.720581	435.214996	-13.289957
765.119568	116.525337	671.352783	46.254108
765.521545	12.407091	757.236938	-3.361760
765.923462	2.481545	1136.312744	26.412823
766.325317	7.444594	1248.429810	-43.084476
766.727112	-34.753971	1537.702271	33.854099
767.128845	9.925827	2026.333374	103.261459
767.530518	-14.892141	1987.735229	-35.634430
767.932251	-19.856936	2197.402832	-13.289957
768.333862	-101.837822	2038.391846	-15.772302
768.735413	4.963121	2233.501221	-0.879938
769.136841	74.404083	2579.299561	76.003860
769.538269	119.002182	2830.622559	76.003860
769.939636	-62.075138	2909.471680	36.334225
770.341003	37.213612	2816.279053	31.373730
770.742249	-9.927631	2842.573730	-8.325582
771.143433	-34.753971	2746.923096	-0.879938
771.544617	-12.409834	2572.108887	-3.361760
771.945740	52.092663	2778.019775	31.373730
772.346802	7.444594	2572.108887	38.814384
772.747803	12.407091	2634.409180	16.489626
773.148682	-24.822149	2615.244629	23.932146
773.549622	29.772757	2612.848389	11.527337
773.950439	52.092663	2861.691650	26.412823
774.351196	-7.445533	2480.978271	4.083258
774.751892	66.967865	2833.012695	26.412823
775.152588	32.253189	2540.942627	88.395126
775.553162	89.273743	2766.060791	95.828682
775.953735	66.967865	2746.923096	78.482239
776.354309	39.693733	2665.543945	53.692902
776.754639	-12.409834	2509.766113	78.482239
777.155090	49.613056	2538.544922	4.083258
777.555420	-129.190582	2452.181396	56.172337
777.955750	19.850122	2555.328613	-67.924881
778.355896	9.925827	2336.900391	-10.807717
778.756104	0.000000	2584.093018	-23.219830
779.156189	-37.237225	2348.915771	38.814384
779.556274	-39.720581	2459.381348	4.083258
779.956299	2.481545	2476.179443	-23.219830
780.356201	-22.339558	2353.721436	31.373730
780.756165	59.530727	2483.377441	31.373730
781.156006	99.184853	2336.900391	85.917160
781.555786	-69.528564	2418.572998	26.412823
781.955505	-29.787918	2197.402832	-62.956009
782.355225	59.530727	2406.566650	-50.535473
782.754761	74.404083	2454.581055	51.213497
783.154358	-27.304979	2320.076172	76.003860
783.553894	-76.982933	2286.418213	-33.151245
783.953369	-111.782791	2276.799072	-57.987560
784.352783	-14.892141	2271.989258	11.527337
784.752075	-49.654930	2464.181152	78.482239
785.151367	-74.498131	2271.989258	26.412823
785.550598	123.955429	2231.094971	83.438950
785.949768	66.967865	2368.136963	-43.084476
786.348877	-9.927631	2127.570557	26.412823
786.747986	54.572029	2132.388184	11.527337
787.147034	-17.374418	2214.250488	28.893261
787.545959	-44.687473	2011.861084	61.130768
787.944885	19.850122	2110.705811	33.854099
788.343750	57.051430	2151.656982	28.893261
788.742493	7.444594	2019.097534	23.932146
789.141235	19.850122	1905.655273	26.412823
789.539917	-2.481785	1980.495972	-28.185328
789.938538	-32.270958	1903.239868	18.970480
790.337158	4.963121	1968.429565	-13.289957
790.735718	42.173752	2170.921387	125.553894
791.134094	-37.237225	1772.706909	-13.289957
791.532532	49.613056	1963.602295	76.003860
791.930847	62.009785	2026.333374	100.783974
792.329224	81.839378	2134.797363	6.564767
792.727417	-24.822149	1867.001465	61.130768
793.125610	-7.445533	1859.751709	-35.634430
793.523682	27.292219	1912.900757	-20.737171
793.921753	-9.927631	2016.685547	56.172337
794.319824	19.850122	1886.330566	23.932146
794.717773	-32.270958	1903.239868	18.970480
795.115723	-27.304979	1987.735229	71.046524
795.513550	0.000000	2004.624146	6.564767
795.911377	-39.720581	1917.730957	14.008533
796.309082	156.142014	2158.881592	56.172337
796.706787	-24.822149	1821.076538	63.609894
797.104370	-14.892141	1837.999268	-38.117718
797.501953	59.530727	1987.735229	80.960648
797.899536	-19.856936	1859.751709	-40.601112
798.296936	-57.106766	1787.220825	46.254108
798.694397	0.000000	1789.639648	61.130768
799.091736	-47.171146	1806.568848	73.525246
799.489014	49.613056	1816.240845	41.294441
799.886230	81.839378	1963.602295	38.814384
800.283447	-37.237225	1886.330566	18.970480
800.680542	76.882660	1833.164551	71.046524
801.077637	-44.687473	1748.511230	4.083258
801.474670	27.292219	1782.383179	21.451365
801.871643	34.733521	1654.079468	18.970480
802.268555	12.407091	1784.802002	4.083258
802.665405	24.811714	1661.347168	23.932146
803.062256	141.288818	1830.747070	-8.325582
803.458923	64.488876	1717.046265	33.854099
803.855652	4.963121	1508.580811	-100.233383
804.252258	141.288818	2026.333374	90.873131
804.648804	32.253189	1763.029419	26.412823
805.045410	7.444594	1593.487427	-10.807717
805.441833	47.133343	1951.533447	33.854099
805.838257	-69.528564	1738.831177	-35.634430
806.234619	101.662407	1915.315918	135.459045
806.630859	29.772757	1598.336548	28.893261
807.027100	-99.351952	1547.406738	53.692902
807.423279	-44.687473	1641.964600	43.774395
807.819458	49.613056	1825.911865	28.893261
808.215515	-2.481785	1695.255493	-10.807717
808.611572	156.142014	1903.239868	66.088921
809.007507	-2.481785	1600.760986	48.733852
809.403381	54.572029	1559.535767	11.527337
809.799194	-44.687473	1566.812500	1.601645
810.195068	2.481545	1656.502197	53.692902
810.590759	44.653534	1571.663208	18.970480
810.986450	-57.106766	1610.457886	-20.737171
811.382080	37.213612	1673.459106	108.216003
811.777649	54.572029	1518.289307	28.893261
812.173157	79.361000	1787.220825	66.088921
812.568665	-49.654930	1316.592773	14.008533
812.964050	29.772757	1549.832642	36.334225
813.359375	-44.687473	1428.441528	33.854099
813.754639	-101.837822	1360.379028	63.609894
814.149841	7.444594	1421.152222	-43.084476
814.545105	4.963121	1323.892090	51.213497
814.940186	29.772757	1301.991577	-38.117718
815.335266	123.955429	1426.011719	41.294441
815.730347	111.571480	1712.204346	33.854099
816.125244	54.572029	1542.554443	41.294441
816.520203	39.693733	2125.161377	21.451365
816.914978	69.446754	2329.690430	6.564767
817.309753	178.415176	3052.668213	-57.987560
817.704468	217.991714	4084.801758	33.854099
818.099182	329.165466	5289.532715	110.693184
818.493774	232.826340	5992.977539	-28.185328
818.888367	351.376495	7201.770508	85.917160
819.282898	346.441406	7803.042480	157.739639
819.677307	425.357452	8296.687500	142.886810
820.071716	339.038025	7709.133301	85.917160
820.466003	304.477295	7445.369141	33.854099
820.860291	267.426727	6870.103027	51.213497
821.254517	245.185898	6132.249512	123.077316
821.648743	163.567261	5245.136719	4.083258
822.042786	84.317642	4556.008789	103.261459
822.436890	59.530727	3692.141846	43.774395
822.830872	138.812881	3338.435547	31.373730
823.224792	133.860855	2648.780518	-15.772302
823.618774	94.229568	2339.303223	1.601645
824.012512	57.051430	2060.092285	-18.254616
824.406311	54.572029	1927.390015	61.130768
824.799988	-54.622669	1721.887939	-30.668301
825.193665	81.839378	1741.251099	68.567841
825.587280	76.882660	1595.912109	-55.503426
825.980835	12.407091	1588.638306	-33.151245
826.374329	-49.654930	1433.300903	-3.361760
826.767761	32.253189	1462.450073	23.932146
827.161194	44.653534	1469.735962	43.774395
827.554443	27.292219	1263.041382	118.124001
827.947754	-32.270958	1228.943359	78.482239
828.340942	39.693733	1292.255859	36.334225
828.734131	66.967865	1233.815552	28.893261
829.127136	-39.720581	1053.333130	18.970480
829.520264	7.444594	1107.036377	-18.254616
829.913208	52.092663	1265.476318	38.814384
830.306152	29.772757	1094.834595	-53.019398
830.699097	2.481545	1124.115601	31.373730
831.091797	-49.654930	1153.385010	-3.361760
831.484619	-81.953140	987.369690	-18.254616
831.877319	94.229568	1336.056519	80.960648
832.270020	69.446754	1150.946289	26.412823
832.662537	0.000000	1197.266968	48.733852
833.055054	-24.822149	926.237793	-30.668301
833.447510	42.173752	1336.056519	38.814384
833.839966	44.653534	962.923157	-60.471661
834.232361	-49.654930	997.145813	48.733852
834.624634	42.173752	1019.137390	-65.440460
835.016907	-7.445533	1228.943359	-55.503426
835.409058	-44.687473	977.591980	16.489626
835.801208	-44.687473	1153.385010	16.489626
836.193298	-64.559555	911.558350	28.893261
836.585327	-22.339558	1177.766968	41.294441
836.977295	-34.753971	1019.137390	-3.361760
837.369202	-32.270958	1060.658569	48.733852
837.761047	-44.687473	1038.679810	-40.601112
838.152832	-4.963674	1153.385010	-3.361760
838.544617	49.613056	1150.946289	26.412823
838.936218	-32.270958	1036.237305	61.130768
839.327942	-52.138680	1019.137390	41.294441
839.719421	39.693733	1063.100220	-15.772302
840.111023	62.009785	1128.994629	73.525246
840.502380	32.253189	1182.642578	26.412823
840.893860	-44.687473	845.462646	-70.409546
841.285217	29.772757	1160.700317	-0.879938
841.676453	89.273743	1211.888428	31.373730
842.067749	9.925827	1028.909180	-33.151245
842.458862	14.888249	1099.715698	-18.254616
842.849976	7.444594	1163.138672	-65.440460
843.241028	89.273743	1004.477112	-20.737171
843.632019	-24.822149	1170.453369	-30.668301
844.022949	-72.013290	1072.866089	9.046171
844.413879	-79.467987	994.701782	26.412823
844.804749	-32.270958	975.147339	80.960648
845.195496	-99.351952	1014.250916	-5.843686
845.586182	4.963121	1063.100220	58.651672
845.976807	-89.409119	918.898621	14.008533
846.367432	-17.374418	1014.250916	4.083258
846.757996	-59.590828	977.591980	31.373730
847.148499	79.361000	1048.448975	-8.325582
847.538879	22.330971	1153.385010	11.527337
847.929260	4.963121	1048.448975	-20.737171
848.319641	22.330971	1248.429810	88.395126
848.709839	-7.445533	1060.658569	-5.843686
849.100098	-52.138680	911.558350	-20.737171
849.490234	-44.687473	948.251404	51.213497
849.880310	64.488876	958.032837	53.692902
850.270325	19.850122	1014.250916	-8.325582
850.660339	-54.622669	1036.237305	43.774395
851.050171	74.404083	994.701782	-13.289957
851.440125	12.407091	918.898621	61.130768
851.829895	-37.237225	899.323181	48.733852
852.219604	0.000000	838.114746	-57.987560
852.609314	-2.481785	962.923157	-50.535473
852.998901	37.213612	896.875854	6.564767
853.388550	14.888249	796.462402	-3.361760
853.778015	-67.043938	911.558350	16.489626
854.167480	-89.409119	811.166138	1.601645
854.556885	54.572029	914.005188	-33.151245
854.946228	14.888249	796.462402	-45.568081
855.335571	-22.339558	872.398010	36.334225
855.724731	-86.923637	744.974487	-43.084476
856.113953	-64.559555	825.866699	-62.956009
856.503052	-86.923637	843.013428	-70.409546
856.892151	-27.304979	794.011414	4.083258
857.281067	-4.963674	889.533325	-60.471661
857.670105	-74.498131	759.689209	-40.601112
858.058960	89.273743	972.702637	-40.601112
858.447754	29.772757	938.468262	68.567841
858.836609	94.229568	1128.994629	36.334225
859.225281	37.213612	1055.775146	43.774395
859.613892	14.888249	994.701782	-23.219830
860.002502	37.213612	801.364075	-45.568081
860.391052	52.092663	695.902344	-105.205452
860.779541	-19.856936	877.294250	-85.319481
861.167969	71.925400	982.481018	-8.325582
861.556335	19.850122	1036.237305	-62.956009
861.944702	0.000000	717.989319	-72.894310
862.332947	7.444594	840.564148	66.088921
862.721069	69.446754	904.217651	21.451365
863.109253	-34.753971	769.497498	-50.535473
863.497314	114.048393	1043.564453	38.814384
863.885376	-57.106766	852.809814	4.083258
864.273315	-22.339558	884.638123	-3.361760
864.661255	-7.445533	688.538269	-62.956009
865.049072	-57.106766	767.045532	-5.843686
865.436890	-2.481785	735.163025	-18.254616
865.824707	19.850122	896.875854	85.917160
866.212280	74.404083	857.707275	31.373730
866.599915	-42.203907	811.166138	6.564767
866.987488	-9.927631	791.560425	-3.361760
867.375061	-4.963674	717.989319	-23.219830
867.762451	17.369307	771.949097	-18.254616
868.149841	24.811714	717.989319	38.814384
868.537170	14.888249	784.206970	14.008533
868.924438	17.369307	767.045532	11.527337
869.311707	-42.203907	722.896301	14.008533
869.698853	-12.409834	771.949097	38.814384
870.085938	44.653534	757.236938	-92.775879
870.472961	0.000000	690.993103	-20.737171
870.859985	-4.963674	686.083435	-20.737171
871.246887	79.361000	877.294250	51.213497
871.633789	-42.203907	749.879883	-8.325582
872.020569	14.888249	762.141479	-13.289957
872.407349	123.955429	1109.476563	95.828682
872.794067	19.850122	874.846191	105.738716
873.180725	91.751709	850.360901	93.351028
873.567322	22.330971	806.265137	76.003860
873.953796	-24.822149	757.236938	-43.084476
874.340332	76.882660	813.616455	-30.668301
874.726624	54.572029	850.360901	-38.117718
875.113037	-2.481785	632.055176	16.489626
875.499329	-76.982933	575.523865	-43.084476
875.885559	-79.467987	661.530579	-3.361760
876.271729	-76.982933	548.470276	-23.219830
876.657898	12.407091	673.808167	31.373730
877.044006	-29.787918	609.939880	4.083258
877.429932	19.850122	717.989319	80.960648
877.815918	-9.927631	668.897278	-45.568081
878.201782	143.764648	742.521729	103.261459
878.587585	131.384613	904.217651	68.567841
878.973389	-62.075138	698.356812	23.932146
879.359070	34.733521	813.616455	56.172337
879.744751	-17.374418	607.482178	16.489626
880.130310	-49.654930	646.794495	-45.568081
880.515930	-14.892141	496.791260	46.254108
880.901367	-7.445533	570.605774	21.451365
881.286804	79.361000	656.618835	16.489626
881.672180	-17.374418	762.141479	41.294441
882.057434	-89.409119	585.358765	23.932146
882.442749	-22.339558	528.787842	-3.361760
882.827942	-34.753971	690.993103	-25.702457
883.213013	-59.590828	624.684082	-33.151245
883.598145	12.407091	742.521729	-23.219830
883.983154	17.369307	634.511963	28.893261
884.368042	-42.203907	553.389771	-48.051792
884.753052	-22.339558	459.852509	-25.702457
885.137817	-72.013290	509.099396	-40.601112
885.522644	-32.270958	713.081665	23.932146
885.907349	-52.138680	479.555817	21.451365
886.292053	-81.953140	533.708740	-33.151245
886.676636	14.888249	499.253113	-25.702457
887.061157	-27.304979	499.253113	-43.084476
887.445740	-42.203907	445.071014	21.451365
887.830078	14.888249	528.787842	6.564767
888.214539	47.133343	708.173645	23.932146
888.598816	76.882660	722.896301	-23.219830
888.983093	-12.409834	612.397522	36.334225
889.367249	34.733521	474.630493	-87.804886
889.751465	-64.559555	543.550171	-13.289957
890.135498	2.481545	550.929932	-28.185328
890.519531	64.488876	639.425110	-15.772302
890.903503	-2.481785	548.470276	-15.772302
891.287415	79.361000	698.356812	46.254108
891.671326	42.173752	619.769653	-8.325582
892.055054	39.693733	499.253113	16.489626
892.438843	74.404083	464.778961	48.733852
892.822510	-67.043938	417.963135	21.451365
893.206116	-72.013290	430.286285	48.733852
893.589661	37.213612	464.778961	-102.719299
893.973206	2.481545	376.046326	-10.807717
894.356628	-2.481785	400.706604	9.046171
894.739990	-29.787918	435.214996	-10.807717
895.123352	79.361000	504.176300	14.008533
895.506592	54.572029	326.696899	-20.737171
895.889832	24.811714	188.311600	-38.117718
896.272949	-17.374418	309.415527	-30.668301
896.656067	14.888249	277.308899	-33.151245
897.039063	74.404083	454.925659	6.564767
897.422058	-14.892141	247.657410	-65.440460
897.804993	19.850122	260.013885	-33.151245
898.187866	4.963121	257.542847	18.970480
898.570618	-42.203907	282.249542	66.088921
898.953369	-64.559555	264.955872	-25.702457
899.336121	-37.237225	240.242310	-38.117718
899.718689	34.733521	292.129486	-28.185328
900.101257	-76.982933	116.525200	26.412823
900.483704	-34.753971	366.179504	-25.702457
900.866211	-91.894699	205.626709	-28.185328
901.248596	-44.687473	141.288681	-35.634430
901.630920	-2.481785	277.308899	43.774395
902.013184	-49.654930	123.955292	-23.219830
902.395386	-14.892141	383.445374	18.970480
902.777588	-2.481785	195.732941	6.564767
903.159668	22.330971	292.129486	4.083258
903.541687	-59.590828	252.600266	-40.601112
903.923645	-49.654930	279.779266	-33.151245
904.305603	-76.982933	193.259216	-0.879938
904.687500	-24.822149	225.409332	1.601645
905.069275	-57.106766	136.336853	-75.379189
905.451050	4.963121	245.185760	-97.747444
905.832642	4.963121	245.185760	23.932146
906.214294	-12.409834	343.973541	-8.325582
906.595825	-4.963674	314.353607	46.254108
906.977417	-4.963674	230.354095	-8.325582
907.358826	9.925827	272.368011	-5.843686
907.740234	-64.559555	242.714020	-33.151245
908.121582	4.963121	297.068848	-28.185328
908.502869	4.963121	299.538422	28.893261
908.884033	34.733521	304.477142	53.692902
909.265198	9.925827	109.094193	-77.864037
909.646301	54.572029	339.037903	-38.117718
910.027344	-32.270958	205.626709	33.854099
910.408325	27.292219	272.368011	68.567841
910.789246	-59.590828	203.153381	-87.804886
911.170105	14.888249	331.633636	-15.772302
911.550903	49.613056	183.363449	-3.361760
911.931641	44.653534	161.092239	-30.668301
912.312317	57.051430	213.045959	-53.019398
912.692932	-39.720581	264.955872	-38.117718
913.073547	0.000000	260.013885	-28.185328
913.453979	-106.810158	183.363449	26.412823
913.834473	7.444594	267.426605	-8.325582
914.214783	4.963121	260.013885	-8.325582
914.595154	54.572029	272.368011	-33.151245
914.975464	-9.927631	237.770386	73.525246
915.355652	-74.498131	237.770386	16.489626
915.735840	-9.927631	351.376495	41.294441
916.115845	52.092663	415.498138	-20.737171
916.495972	-76.982933	193.259216	31.373730
916.875854	17.369307	193.259216	33.854099
917.255859	39.693733	334.101868	11.527337
917.635620	-14.892141	190.785385	-18.254616
918.015503	94.229568	403.171997	-53.019398
918.395203	91.751709	388.377563	18.970480
918.774902	-2.481785	183.363449	4.083258
919.154480	-47.171146	84.317505	-53.019398
919.534058	161.092377	605.024353	4.083258
919.913574	4.963121	250.128815	-80.349121
920.292969	-49.654930	326.696899	-28.185328
920.672363	0.000000	329.165314	6.564767
921.051636	24.811714	282.249542	-5.843686
921.430969	2.481545	319.291199	-62.956009
921.810181	-12.409834	440.143219	120.600639
922.189331	39.693733	173.466095	4.083258
922.568420	-89.409119	193.259216	-33.151245
922.947388	121.478790	351.376495	28.893261
923.326416	-22.339558	121.478790	-62.956009
923.705261	-57.106766	222.936951	18.970480
924.084106	114.048393	602.566467	83.438950
924.462891	-17.374418	183.363449	-10.807717
924.841675	96.707191	282.249542	43.774395
925.220337	-14.892141	205.626709	41.294441
925.598938	-49.654930	123.955292	-23.219830
925.977478	138.812881	614.855103	43.774395
926.355957	-12.409834	188.311600	58.651672
926.734436	-79.467987	180.889374	-25.702457
927.112732	121.478790	491.867249	105.738716
927.491089	-42.203907	180.889374	-0.879938
927.869324	-52.138680	185.837585	-67.924881
928.247559	57.051430	203.153381	23.932146
928.625671	-29.787918	96.707062	18.970480
929.003723	-2.481785	245.185760	51.213497
929.381775	57.051430	116.525200	-70.409546
929.759705	-57.106766	17.369171	4.083258
930.137634	-121.729477	-109.296486	-8.325582
930.515381	-32.270958	96.707062	26.412823
930.893250	138.812881	393.309509	46.254108
931.270935	69.446754	163.567261	21.451365
931.648560	-69.528564	-47.171284	-90.290398
932.026123	-47.171146	-47.171284	-38.117718
932.403687	-76.982933	57.051296	-30.668301
932.781250	-47.171146	9.925827	-55.503426
933.158630	69.446754	442.607208	71.046524
933.536011	-47.171146	-7.445668	-8.325582
933.913208	-27.304979	-104.324074	4.083258
934.290527	-22.339558	-91.894699	-8.325582
934.667664	128.908401	319.291199	98.306374
935.044800	-17.374418	-37.237358	31.373730
935.421814	-79.467987	66.967735	53.692902
935.798889	-4.963674	47.133209	38.814384
936.175842	-27.304979	-64.559685	76.003860
936.552673	-84.438271	153.666687	-3.361760
936.929504	-34.753971	-34.754105	-80.349121
937.306274	-27.304979	-32.270958	41.294441
937.683044	27.292219	96.707062	-35.634430
938.059570	-22.339558	-32.270958	28.893261
938.436218	69.446754	358.778442	110.693184
938.812744	-89.409119	-81.953278	-38.117718
939.189148	-34.753971	9.925827	31.373730
939.565613	-79.467987	12.406956	-3.361760
939.941956	-74.498131	-81.953278	-18.254616
940.318237	17.369307	180.889374	56.172337
940.694458	14.888249	19.850122	-25.702457
941.070557	-32.270958	-69.528694	-18.254616
941.446655	39.693733	111.571342	-23.219830
941.822693	-12.409834	94.229431	53.692902
942.198669	-42.203907	-22.339691	-45.568081
942.574646	-57.106766	34.733383	-60.471661
942.950562	-22.339558	76.882530	-43.084476
943.326294	-27.304979	52.092525	16.489626
943.702026	-27.304979	79.361000	18.970480
944.077698	-64.559555	-7.445668	-70.409546
944.453369	-49.654930	-4.963809	4.083258
944.828918	-4.963674	39.693600	-18.254616
945.204468	-9.927631	27.292219	-25.702457
945.579834	4.963121	96.707062	-55.503426
945.955261	44.653534	-19.857071	-85.319481
946.330627	9.925827	-22.339691	-28.185328
946.705811	-22.339558	-89.409248	-95.261612
947.081055	29.772757	-22.339691	-33.151245
947.456177	126.431976	66.967735	-33.151245
947.831238	-47.171146	-96.866180	-62.956009
948.206238	-57.106766	89.273613	-33.151245
948.581238	7.444594	-106.810295	18.970480
948.956116	14.888249	29.772621	56.172337
949.330933	4.963121	-79.468124	46.254108
949.705811	-52.138680	7.444459	-38.117718
950.080505	-7.445533	-17.374554	9.046171
950.455139	4.963121	-19.857071	-25.702457
950.829773	-62.075138	-52.138813	-60.471661
951.204346	245.185898	627.141174	142.886810
951.578735	121.478790	304.477142	98.306374
951.953186	-14.892141	57.051296	-23.219830
952.327515	12.407091	-49.654930	41.294441
952.701843	2.481545	-89.409248	-18.254616
953.076172	-12.409834	-59.590965	-10.807717
953.450195	-84.438271	-74.498131	-90.290398
953.824341	24.811714	62.009785	-65.440460
954.198486	-52.138680	4.962986	-45.568081
954.572449	81.839378	272.368011	11.527337
954.946350	2.481545	14.888115	16.489626
955.320251	37.213612	193.259216	-8.325582
955.694092	-19.856936	-12.409968	-20.737171
956.067871	4.963121	89.273613	-40.601112
956.441589	86.795677	141.288681	-62.956009
956.815125	-44.687473	29.772621	-8.325582
957.188721	7.444594	27.292219	-48.051792
957.562256	-72.013290	17.369171	-67.924881
957.935730	19.850122	24.811581	23.932146
958.309021	-32.270958	-42.204041	11.527337
958.682373	-79.467987	-57.106766	-92.775879
959.055664	-34.753971	-59.590965	-82.834312
959.428955	-17.374418	22.330835	-130.072479
959.802063	-59.590828	-124.216591	16.489626
960.175110	-49.654930	-64.559685	-72.894310
960.548157	-104.323944	-29.788054	-92.775879
960.921143	17.369307	32.253056	-90.290398
961.294128	-7.445533	-37.237358	-55.503426
961.666809	-9.927631	4.962986	-48.051792
962.039612	-57.106766	86.795677	23.932146
962.412415	-7.445533	24.811581	-43.084476
962.785095	-14.892141	-69.528694	-72.894310
963.157715	-47.171146	52.092525	-75.379189
963.530151	-64.559555	-19.857071	-43.084476
963.902649	-14.892141	81.839241	-20.737171
964.275146	-22.339558	74.403946	-15.772302
964.647522	104.139732	19.850122	36.334225
965.019714	-72.013290	-59.590965	-20.737171
965.392029	24.811714	52.092525	-15.772302
965.764160	-44.687473	37.213474	23.932146
966.136292	-149.091690	14.888115	23.932146
966.508423	-49.654930	-76.983070	-45.568081
966.880371	-32.270958	-0.000135	-48.051792
967.252319	91.751709	175.940613	-5.843686
967.624207	-57.106766	-7.445668	1.601645
967.996094	-14.892141	64.488747	18.970480
968.367737	47.133343	168.516876	-45.568081
968.739441	-57.106766	74.403946	6.564767
969.111084	-114.269333	27.292219	-8.325582
969.482666	-32.270958	-19.857071	-50.535473
969.854248	-44.687473	-29.788054	-18.254616
970.225586	9.925827	111.571342	-50.535473
970.596985	-34.753971	101.662277	-40.601112
970.968323	54.572029	66.967735	-40.601112
971.339661	19.850122	180.889374	-57.987560
971.710754	-22.339558	185.837585	9.046171
972.081909	-7.445533	183.363449	-25.702457
972.453064	-42.203907	99.184723	33.854099
972.824097	136.336990	499.253113	41.294441
973.194946	-44.687473	-57.106766	-33.151245
973.565918	17.369307	27.292219	-38.117718
973.936768	-37.237225	69.446617	6.564767
974.307556	14.888249	-111.782928	-53.019398
974.678284	-99.351952	34.733383	-50.535473
975.048828	22.330971	86.795677	-60.471661
975.419495	49.613056	109.094193	-5.843686
975.790039	2.481545	96.707062	-87.804886
976.160522	49.613056	62.009785	-10.807717
976.530884	-57.106766	-0.000135	11.527337
976.901245	-2.481785	-7.445668	31.373730
977.271606	-44.687473	44.653534	-33.151245
977.641846	24.811714	262.484924	-57.987560
978.012024	-37.237225	14.888115	-45.568081
978.382019	-34.753971	22.330835	83.438950
978.752136	153.666824	311.884613	51.213497
979.122131	24.811714	242.714020	11.527337
979.492065	-72.013290	62.009785	36.334225
979.861877	-27.304979	-59.590965	-5.843686
980.231689	-91.894699	-52.138813	-3.361760
980.601440	-49.654930	-64.559685	-3.361760
980.971191	-12.409834	62.009785	1.601645
981.340820	-19.856936	4.962986	-95.261612
981.710266	-17.374418	-0.000135	-72.894310
982.079773	-17.374418	170.991608	6.564767
982.449280	-74.498131	57.051296	-40.601112
982.818604	66.967865	208.099792	-77.864037
983.187866	-17.374418	91.751572	-53.019398
983.557129	-37.237225	-54.622803	-45.568081
983.926331	4.963121	27.292219	-8.325582
984.295471	-34.753971	12.406956	-97.747444
984.664612	-39.720581	19.850122	-67.924881
985.033569	-4.963674	12.406956	-25.702457
985.402527	-49.654930	59.530590	-43.084476
985.771362	39.693733	141.288681	-43.084476
986.140259	76.882660	195.732941	-35.634430
986.508911	29.772757	148.715729	-77.864037
986.877625	81.839378	279.779266	21.451365
987.246277	0.000000	114.048256	-72.894310
987.614929	-27.304979	44.653534	-55.503426
987.983459	-24.822149	136.336853	-60.471661
988.351807	19.850122	227.881760	-65.440460
988.720215	-106.810158	49.612923	28.893261
989.088623	22.330971	27.292219	-3.361760
989.456909	54.572029	128.908264	-60.471661
989.825012	14.888249	-2.481920	-77.864037
990.193115	-2.481785	-24.822283	-48.051792
990.561279	29.772757	109.094193	-33.151245
990.929321	-22.339558	47.133209	18.970480
991.297302	-17.374418	109.094193	-45.568081
991.665100	9.925827	-57.106766	-23.219830
992.033020	-19.856936	101.662277	-10.807717
992.400818	-69.528564	-12.409968	-13.289957
992.768494	-2.481785	119.002045	51.213497
993.136047	-79.467987	37.213474	16.489626
993.503723	-64.559555	-19.857071	-102.719299
993.871277	0.000000	111.571342	14.008533
994.238770	-7.445533	42.173615	14.008533
994.606140	-104.323944	-52.138813	63.609894
994.973450	-27.304979	-67.044075	-90.290398
995.340759	-76.982933	-44.687611	-33.151245
995.708008	-37.237225	74.403946	-80.349121
996.075195	7.444594	-44.687611	-50.535473
996.442200	-64.559555	111.571342	14.008533
996.809265	-29.787918	-52.138813	-43.084476
997.176270	-94.380249	-94.380386	-70.409546
997.543152	-34.753971	-64.559685	-23.219830
997.910095	4.963121	-24.822283	1.601645
998.276733	-67.043938	71.925262	-33.151245
998.643494	-129.190582	-91.894699	-18.254616
999.010193	-126.703529	-17.374554	-57.987560
999.376831	17.369307	47.133209	4.083258
999.743286	-72.013290	-34.754105	-53.019398
1000.109802	94.229568	74.403946	-25.702457
1000.476257	-94.380249	37.213474	-90.290398
1000.842651	-54.622669	-19.857071	-62.956009
1001.208923	-9.927631	12.406956	-70.409546
1001.575134	-52.138680	-34.754105	16.489626
1001.941284	-22.339558	42.173615	-70.409546
1002.307434	-52.138680	-27.305115	-30.668301
1002.673523	-27.304979	-22.339691	-53.019398
1003.039429	-101.837822	-42.204041	28.893261
1003.405334	79.361000	84.317505	-15.772302
1003.771179	-62.075138	-17.374554	-132.559814
1004.137024	12.407091	-76.983070	43.774395
1004.502808	-34.753971	-91.894699	-3.361760
1004.868408	32.253189	-22.339691	-55.503426
1005.234009	-27.304979	-7.445668	4.083258
1005.599609	-7.445533	156.142014	-25.702457
1005.965149	-64.559555	-2.481920	33.854099
1006.330444	-101.837822	-22.339691	-127.585243
1006.695862	-81.953140	-14.892141	-85.319481
1007.061218	-17.374418	-2.481920	-35.634430
1007.426453	94.229568	29.772621	-18.254616
1007.791626	-52.138680	76.882530	28.893261
1008.156677	52.092663	32.253056	36.334225
1008.521729	64.488876	86.795677	-18.254616
1008.886780	-91.894699	19.850122	-38.117718
1009.251709	-47.171146	74.403946	-23.219830
1009.616577	-27.304979	-67.044075	-5.843686
1009.981384	-7.445533	57.051296	33.854099
1010.346130	79.361000	111.571342	26.412823
1010.710754	54.572029	225.409332	38.814384
1011.075439	49.613056	215.518890	16.489626
1011.439941	14.888249	19.850122	-100.233383
1011.804443	-64.559555	42.173615	-62.956009
1012.168884	-19.856936	-12.409968	-65.440460
1012.533325	-91.894699	-62.075272	6.564767
1012.897522	-89.409119	-12.409968	56.172337
1013.261780	-116.755981	-129.190720	18.970480
1013.626038	-7.445533	39.693600	78.482239
1013.990112	-81.953140	2.481545	68.567841
1014.354187	-54.622669	22.330835	28.893261
1014.718140	-24.822149	39.693600	9.046171
1015.082153	17.369307	59.530590	6.564767
1015.446045	-2.481785	49.612923	43.774395
1015.809937	-57.106766	39.693600	14.008533
1016.173523	-69.528564	7.444459	6.564767
1016.537170	-29.787918	81.839241	-3.361760
1016.900879	2.481545	62.009785	61.130768
1017.264404	-59.590828	-7.445668	-28.185328
1017.627991	-19.856936	2.481545	61.130768
1017.991333	-59.590828	-99.352089	-23.219830
1018.354675	-7.445533	27.292219	-62.956009
1018.718018	-67.043938	-52.138813	-48.051792
1019.081299	-44.687473	126.431839	41.294441
1019.444397	-47.171146	96.707062	43.774395
1019.807495	0.000000	-79.468124	-33.151245
1020.170593	17.369307	-22.339691	-28.185328
1020.533691	-64.559555	146.240250	16.489626
1020.896606	-2.481785	49.612923	-40.601112
1021.259460	-81.953140	27.292219	-53.019398
1021.622253	-64.559555	-32.270958	-117.637688
1021.985046	-86.923637	-79.468124	23.932146
1022.347778	-49.654930	-37.237358	9.046171
1022.710327	-49.654930	-47.171284	6.564767
1023.072876	-52.138680	-47.171284	-43.084476
1023.435364	-44.687473	-79.468124	26.412823
1023.797852	-64.559555	-19.857071	-53.019398
1024.160278	-116.755981	-74.498131	-15.772302
1024.522461	-74.498131	-84.438408	-53.019398
1024.884766	-79.467987	-94.380386	-48.051792
1025.246948	-91.894699	27.292219	-55.503426
1025.609131	-89.409119	-67.044075	-30.668301
1025.971069	44.653534	32.253056	-35.634430
1026.333130	-57.106766	-37.237358	-28.185328
1026.694946	-42.203907	54.571896	-105.205452
1027.056885	71.925400	262.484924	9.046171
1027.418823	-104.323944	-27.305115	-43.084476
1027.780396	-27.304979	32.253056	-40.601112
1028.142090	-4.963674	57.051296	-62.956009
1028.503784	-17.374418	-101.837959	-40.601112
1028.865479	-32.270958	-57.106766	-3.361760
1029.226807	-39.720581	-74.498131	-45.568081
1029.588135	-32.270958	-9.927766	-18.254616
1029.949707	-32.270958	-0.000135	-28.185328
1030.310913	54.572029	84.317505	9.046171
1030.672241	-2.481785	27.292219	23.932146
1031.033325	22.330971	24.811581	-43.084476
1031.394531	-9.927631	111.571342	36.334225
1031.755493	-24.822149	69.446617	-25.702457
1032.116577	-4.963674	-12.409968	-85.319481
1032.477417	39.693733	-2.481920	-13.289957
1032.838257	7.444594	-161.533432	-30.668301
1033.199097	-59.590828	-4.963809	-25.702457
1033.559937	39.693733	-9.927766	9.046171
1033.920654	12.407091	7.444459	-0.879938
1034.281128	-9.927631	7.444459	-25.702457
1034.641724	59.530727	49.612923	26.412823
1035.002197	39.693733	168.516876	36.334225
1035.362671	86.795677	59.530590	-87.804886
1035.722900	-37.237225	-57.106766	-100.233383
1036.083252	17.369307	66.967735	-82.834312
1036.443481	-37.237225	-32.270958	-50.535473
1036.803711	22.330971	-59.590965	53.692902
1037.163940	111.571480	237.770386	-28.185328
1037.523804	7.444594	59.530590	23.932146
1037.883789	-57.106766	-131.678009	-40.601112
1038.243774	-39.720581	-62.075272	-15.772302
1038.603638	14.888249	64.488747	-33.151245
1038.963257	42.173752	121.478790	-53.019398
1039.323120	-14.892141	-69.528694	-40.601112
1039.682861	-19.856936	-116.755981	-28.185328
>>>>>End Processed Spectral Data<<<<<
