Jaz Data File
++++++++++++++++++++++++++++++++++++
Date: Thu Dec 04 15:00:32 2014
User: jaz
Dark Spectrum Present: Yes
Reference Spectrum Present: Yes
Processed Spectrum Present: No
Spectrometers: JAZA2310
Integration Time (usec): 314000 (JAZA2310)
Spectra Averaged: 11 (JAZA2310)
Boxcar Smoothing: 0 (JAZA2310)
Correct for Electrical Dark: Yes (JAZA2310)
Strobe/Lamp Enabled: No (JAZA2310)
Correct for Detector Non-linearity: Yes (JAZA2310)
Correct for Stray Light: No (JAZA2310)
Number of Pixels in Processed Spectrum: 2048
>>>>>Begin Processed Spectral Data<<<<<
W	D	R	S
188.301102	0.000000	0.000000	0.000000
188.764923	0.000000	0.000000	0.000000
189.228699	-81.747826	-65.185875	-98.842484
189.692459	-96.660538	-74.220932	-70.600769
190.156158	-54.417446	-59.765404	-45.759228
190.619812	-29.808578	-38.766178	-49.823391
191.083435	3.588995	12.007229	6.599587
191.547043	-10.399466	-7.845664	-7.839724
192.010590	2.686570	-6.943078	8.404034
192.474091	14.416614	8.398096	-28.150620
192.937561	0.430583	33.206295	-3.101370
193.401001	28.399340	49.213444	8.178650
193.864410	20.731911	45.606709	16.975414
194.327759	62.890816	24.637394	30.957405
194.791077	15.769978	28.696423	-20.476704
195.254349	16.446579	17.646067	7.050637
195.717575	31.556396	-1.302431	22.162714
196.180786	22.084995	7.721266	-0.394006
196.643951	2.686705	0.728075	1.636603
197.107071	-1.374242	12.909512	2.313233
197.570145	25.016663	4.563075	-1.521913
198.033203	6.973033	2.307159	-9.419080
198.496216	13.739987	0.502391	12.915584
198.959167	3.363593	5.691000	2.538774
199.422089	-18.974689	-12.584129	-6.034566
199.884979	-12.430355	-7.619949	-28.601940
200.347855	-5.886749	12.458372	7.050637
200.810654	-6.563607	-9.199569	-2.424551
201.273422	-12.204758	30.951468	-14.609153
201.736160	40.124298	40.871979	32.535820
202.198853	0.430583	-12.584265	-16.640188
202.661514	-0.471755	-3.558706	-34.922390
203.124130	-27.099716	-24.770971	-40.791969
203.586700	-9.045668	15.841632	9.532022
204.049240	10.581983	-3.107579	1.410789
204.511734	-38.838036	-19.354376	-32.439373
204.974197	-6.789184	-7.168791	-26.796144
205.436615	-34.548817	-15.292188	-47.791206
205.899002	-0.922997	-20.482914	-46.888142
206.361343	-35.000183	-55.248882	-18.671293
206.823654	-43.579136	-17.097765	-23.636675
207.285919	-24.842674	-22.062746	-0.845248
207.748123	-5.886749	-25.899614	-59.985237
208.210327	-44.482288	-18.451612	-35.148209
208.672485	-24.165606	-29.736734	-39.211906
209.134583	-21.231640	-1.076876	-15.511857
209.596649	-49.901203	-21.611206	-55.242802
210.058670	-51.030060	-36.508823	-40.340424
210.520676	-59.385590	-24.770971	-61.340347
210.982635	-31.839869	-49.603592	-21.605265
211.444534	-21.231504	-22.965294	-34.470886
211.906403	-15.138272	10.653914	-11.901397
212.368240	-27.099987	2.758511	-30.181988
212.830048	-23.939827	-29.962399	-15.060503
213.291779	0.881814	-11.681741	-24.764894
213.753494	-55.546391	-23.642483	-45.759094
214.215179	1.558587	-19.128750	-42.372482
214.676819	-34.774498	-14.840971	-49.371773
215.138412	-46.062763	-32.219639	-23.636406
215.599960	-8.142929	-34.025600	-52.081394
216.061493	-25.519751	-20.482780	-51.178131
216.522949	-23.939962	-29.510935	-48.016941
216.984406	-33.645683	-14.389623	-14.157672
217.445801	-46.062763	-18.677368	-36.728436
217.907166	-23.714319	-9.876465	-32.439236
218.368484	-2.502303	1.630530	-35.599720
218.829773	-39.063869	-18.225990	-27.924692
219.291031	-34.774635	-35.605930	-43.501331
219.752228	-11.979026	-19.805761	-35.825542
220.213379	0.881949	-6.943078	-21.153864
220.674500	-29.808443	-29.059475	-46.210682
221.135574	-28.002747	-27.479591	-8.742324
221.596634	-26.648411	-28.833677	-30.859262
222.057648	-31.614061	-22.739655	-40.791969
222.518600	-47.868885	-9.650607	-57.501156
222.979553	-35.451824	-37.637424	-23.636406
223.440430	-31.839869	-20.257015	-20.928099
223.901276	-27.776955	-38.314648	-13.029658
224.362076	-28.905521	-48.248756	-55.694466
224.822845	-46.740086	-55.248882	-84.606972
225.283569	-28.679726	-33.574242	-28.602076
225.744278	-32.291351	-27.705112	-48.242813
226.204910	-32.065540	-23.642483	-42.823914
226.665512	-28.905521	-28.608015	-42.824047
227.126114	-19.877459	-50.055210	-33.568027
227.586639	-28.228405	-6.266215	-34.245205
228.047119	-18.749067	-21.836975	2.764315
228.507568	-32.968651	-22.965294	-9.644802
228.967972	-30.259775	-35.154289	-34.470886
229.428345	-53.288383	-16.420515	-49.371773
229.888687	-20.328850	-48.700500	-35.148209
230.348984	-45.159725	-9.425020	-23.862047
230.809219	-29.582645	-22.513882	-39.211773
231.269440	-16.492344	-56.603886	-43.049763
231.729614	-48.772232	-42.829990	-44.855923
232.189758	-55.320759	-32.219639	-31.310600
232.649841	-5.886614	-5.589225	-44.856056
233.109894	-7.014760	-2.656321	-36.276783
233.569901	-2.502303	-3.784406	9.983318
234.029892	-13.333025	-6.040641	-24.313469
234.489822	-13.558627	1.404715	-33.793842
234.949707	-30.937050	-14.163882	-60.662720
235.409561	4.265738	5.916799	-32.665180
235.869385	-39.289570	3.435128	-46.210682
236.329163	-4.984193	-21.385572	-27.699169
236.788895	-43.353420	-37.863255	-48.242813
237.248581	-13.784230	-19.805761	-40.114719
237.708237	-26.874063	-20.257151	-22.056534
238.167847	-22.585718	-23.416706	-17.317305
238.627441	-28.679861	-15.517932	-16.865938
239.086960	-30.034245	-25.447910	-54.113865
239.546463	-21.005739	-16.420515	-29.730656
240.005920	-39.063736	-28.833813	-29.956322
240.465332	-44.482288	-25.899343	-45.307507
240.924698	-41.547173	-33.574242	-31.762348
241.384033	-55.772289	-26.125265	-38.986073
241.843338	-39.515274	-43.732994	-34.019657
242.302597	-24.617029	-43.733128	-39.889149
242.761810	2.235488	8.849266	-6.485715
243.220993	-18.297688	-19.580000	-42.372349
243.680115	5.844997	-21.836975	-27.699169
244.139221	-45.159454	-24.093903	-50.500755
244.598282	-16.492344	-13.938413	-23.410900
245.057297	-34.323135	-34.025600	-25.441969
245.516266	-32.065678	-31.091009	-32.213562
245.975189	-45.611176	-18.000237	-55.694466
246.434082	-38.160805	-6.943213	-30.407656
246.892944	-24.391251	-16.871744	-25.667887
247.351761	-31.162855	-18.451612	-48.694420
247.810516	-9.948152	29.147438	-3.778332
248.269272	-33.420277	-21.159805	-43.727047
248.727951	10.130960	40.872250	28.026030
249.186600	-53.514008	-32.671124	-19.348299
249.645218	-37.031921	-47.119816	-52.081394
250.103790	-27.551163	-12.132934	-27.924826
250.562317	-27.551163	-24.996752	-37.857174
251.020813	-48.094887	-32.896801	-68.793671
251.479279	-60.740685	-45.539310	-56.823574
251.937668	-52.836739	-9.650607	-43.952904
252.396057	-36.806232	13.135013	-21.604996
252.854385	-22.134447	-32.219639	-38.308701
253.312683	-26.648411	16.292746	-38.083004
253.770920	-41.772881	5.916799	-37.631344
254.229126	-35.677513	-18.451612	-62.469425
254.687302	-22.134447	-4.461240	-20.928099
255.145432	-42.450287	-30.188200	-60.888638
255.603500	-52.159348	-32.445446	-54.565384
256.061584	-21.457273	-31.316814	-13.029523
256.519592	-23.714319	-25.673830	-25.216322
256.977570	-50.126949	-38.089085	-48.016941
257.435455	-14.686921	-11.907202	-21.830765
257.893372	-17.395077	-32.896935	-24.087826
258.351196	-11.076511	-35.379974	-35.599583
258.808990	-10.399466	-36.734512	-31.987751
259.266754	-40.192654	-23.868124	-63.372734
259.724487	15.544216	25.539484	-0.394006
260.182190	3.588995	-16.194902	-31.084930
260.639832	-32.517162	-51.184208	-28.602076
261.097443	-35.451824	-36.734379	-40.566265
261.554993	-32.743107	-5.814932	-33.793705
262.012512	-22.359947	-16.194767	-11.449936
262.469971	-14.461314	0.502391	4.569149
262.927429	-12.881688	-16.646130	-50.275013
263.384827	-18.523308	-23.191067	-34.245205
263.842194	-43.804989	-10.102054	-17.994295
264.299530	-36.580269	-42.152714	-34.696571
264.756805	-46.288490	-38.540478	-42.823914
265.214050	2.235623	9.977110	-24.539249
265.671234	17.123310	6.593514	1.862013
266.128387	-13.107288	-27.479456	-43.726913
266.585510	-45.159588	-30.188200	-30.633324
267.042572	-12.655819	-17.323111	-22.508076
267.499573	-28.679726	-14.163882	-17.542788
267.956604	-2.953560	15.616141	-6.937138
268.413574	0.204898	34.333809	2.313233
268.870483	-25.294104	-6.717366	-14.383412
269.327362	-41.772881	-24.093903	-32.213562
269.784180	-13.558627	36.588234	9.306507
270.240936	-13.558627	-3.107579	0.508466
270.697693	-32.517162	-11.681605	-26.344839
271.154419	-69.097336	-21.159941	-36.051231
271.611053	-54.417309	-23.868259	-61.114422
272.067688	-10.625057	-1.753679	-15.060639
272.524292	-23.488544	-17.097630	-34.245342
272.980835	-30.259911	-13.938143	-27.021933
273.437347	-15.138272	3.660935	-6.711426
273.893799	-34.548950	-16.646130	-27.473513
274.350250	-28.454201	-44.184837	-49.823391
274.806610	-32.742840	-34.928467	-35.599720
275.262939	-4.984058	-9.650743	-39.889011
275.719238	-11.302105	-19.128614	-27.924961
276.175507	-17.395077	-14.389623	-28.150620
276.631714	-5.435334	-12.584129	-22.507940
277.087891	-15.363881	-8.522545	-27.022068
277.544067	-9.948152	-34.025463	-45.081779
278.000122	-28.002747	-66.992722	-45.984818
278.456177	-11.979026	-34.928604	-27.699169
278.912201	-21.457273	-5.138083	-26.570492
279.368164	-32.742840	-48.926235	-23.184990
279.824097	-71.130257	-32.445446	-39.889011
280.279968	-42.450287	-30.188200	-36.728436
280.735840	-44.708008	-44.410561	-66.083138
281.191620	-31.614197	-41.927002	-46.888008
281.647400	-28.905521	-12.809999	-50.500755
282.103149	-20.780243	-12.132934	-20.702198
282.558838	-7.691767	-29.962399	-26.796415
283.014465	-28.679726	-7.619949	-19.799685
283.470062	-30.711382	-13.712404	-33.793705
283.925629	-19.651833	-10.553370	-29.730522
284.381134	-62.547394	-38.766312	-47.113735
284.836639	-28.679861	-25.222263	-48.694553
285.292053	-20.780107	-5.363789	-52.081394
285.747467	-51.030197	-24.545191	-47.565472
286.202820	-54.417446	-32.219639	-36.954124
286.658142	-33.645683	-2.881882	-23.410900
287.113434	-46.514217	-23.642483	-53.436188
287.568634	-25.745535	-24.093903	-48.920429
288.023804	-23.037264	10.653645	-26.796144
288.478973	-63.450699	-21.159941	-43.501198
288.934113	-32.968651	-43.281693	-47.565472
289.389130	-34.323135	-3.784271	-24.765028
289.844208	-37.257755	-7.394504	-47.791073
290.299164	-38.612335	-22.965427	-40.340424
290.754089	-28.679861	-24.545462	-56.823574
291.208984	-19.200314	3.435128	-22.056534
291.663879	-21.908407	-36.508823	-13.932202
292.118683	-21.457273	-40.120930	-23.410765
292.573456	-27.099716	-16.420515	-7.162716
293.028198	-15.138272	-36.508686	-32.665180
293.482849	-32.968651	-29.510935	-38.308838
293.937561	-47.191681	-33.574104	-40.791969
294.392151	39.222294	31.176899	35.692654
294.846741	-12.430221	15.616141	16.073195
295.301239	-30.034109	-22.288246	-30.182121
295.755737	-28.905386	-40.572342	-50.275013
296.210175	-16.943708	-35.379974	-41.920925
296.664581	-48.998108	-35.605526	-18.896915
297.118958	-39.515274	-41.701157	-65.179794
297.573242	-27.776955	-28.608015	-46.210682
298.027557	-17.169325	-6.040641	-14.383547
298.481812	-36.580540	-37.863388	-35.148209
298.935974	-41.321323	-18.677368	-39.663445
299.390137	-9.271254	-2.656186	-4.906303
299.844238	-41.321323	-21.385437	-25.667618
300.298340	-28.454065	0.276707	-32.213696
300.752350	-48.320759	-31.542620	-28.602076
301.206360	-29.131319	-23.868124	-44.178490
301.660278	-23.488544	-33.574104	-47.113735
302.114197	-38.386501	-31.542484	-50.952248
302.568054	-15.364017	-20.934040	-46.662277
303.021881	-19.426208	-19.128614	-40.340557
303.475677	-20.554613	5.916799	-16.188961
303.929413	-28.002747	-12.132934	-38.760235
304.383118	13.739987	7.946922	8.178514
304.836761	-41.998726	-1.302431	-61.114559
305.290375	-6.563607	25.314030	-12.578054
305.743958	-53.514278	-36.057175	-46.210682
306.197510	-37.031921	-19.805626	-34.922523
306.650970	5.619333	1.630260	0.057096
307.104431	-16.717958	-26.350916	-31.536407
307.557800	-29.356981	12.007093	15.171095
308.011169	-25.519886	-28.833677	-20.928099
308.464508	-2.727998	-24.093903	-55.242668
308.917755	-21.457409	-17.323246	-27.924961
309.371063	-43.804989	-24.996752	-23.862047
309.824219	-7.691902	0.728075	-27.699305
310.277374	-61.192257	-32.445446	-18.219915
310.730499	-25.068457	-32.219639	-47.565472
311.183563	-24.616894	-13.035464	-34.245205
311.636597	-43.579136	-45.539310	-37.179955
312.089569	-53.062492	-43.055843	-41.469234
312.542511	35.389400	41.097641	20.358553
312.995422	-27.551163	-28.382221	-29.956322
313.448273	-11.979026	-0.400081	-17.317305
313.901093	-16.943708	-26.350916	-35.599720
314.353882	-23.488544	-3.107444	-14.157672
314.806580	-37.032059	-27.028011	-20.025312
315.259308	-28.454336	-10.327643	-32.213696
315.711975	-52.836739	-65.637611	-47.339603
316.164581	-18.297688	-2.656186	-35.373894
316.617126	-9.045533	-24.996752	-28.150484
317.069672	-40.192520	-0.625633	-27.699305
317.522156	-7.466322	9.074918	2.087556
317.974579	-35.903202	-25.673830	-52.081394
318.427002	-23.262770	-22.965294	-24.087826
318.879333	-16.492344	14.488270	-23.185125
319.331665	-33.194462	-16.194767	-30.859262
319.783936	-62.773319	-9.650743	-49.146034
320.236176	-47.417549	-33.122612	-38.308701
320.688354	-45.159454	-18.000237	-43.727047
321.140503	-35.226139	-38.991879	-44.855923
321.592651	-33.871635	-1.302566	-5.583285
322.044647	-20.554613	-34.702785	-49.371773
322.496704	-55.772289	1.179034	-58.630295
322.948639	-51.481831	-20.031389	-66.309082
323.400604	-9.496840	-9.876330	-31.762215
323.852509	-8.142794	-13.712674	0.282916
324.304352	-55.320759	-29.962263	-11.675666
324.756165	18.250862	-19.128614	-20.476704
325.207916	-14.912663	-23.191067	-31.762215
325.659668	-35.000183	-36.282997	-37.631477
326.111328	-12.655953	-32.445446	-41.469368
326.562988	-8.819948	-16.420515	-14.609153
327.014557	-6.563607	-22.288246	-29.956186
327.466156	-13.558627	-13.938143	-16.188692
327.917664	-49.901203	-20.482780	-28.150484
328.369110	-33.194328	-7.619949	7.050637
328.820557	-33.194462	-23.416706	-33.793842
329.271942	-32.065678	-19.805761	-49.145897
329.723297	-35.000183	-38.992016	-62.243771
330.174561	-7.691767	-33.348289	-22.282305
330.625854	-48.094620	-16.871744	-28.150620
331.077026	-28.228405	-44.184566	-39.437473
331.528229	-1.825491	-34.251282	-23.410765
331.979370	-20.780378	14.262774	-32.439373
332.430450	-14.912663	-15.517932	-33.116669
332.881500	-45.611176	-20.934175	-33.116669
333.332489	0.205033	-16.420515	-28.150484
333.783478	-15.589626	-12.809999	12.690082
334.234406	-52.159210	-39.443550	-40.114853
334.685303	-18.297688	-33.122612	-41.695213
335.136078	-66.386917	-43.281693	-56.146267
335.586914	-25.745535	-2.881882	-15.286248
336.037659	-0.471890	20.352345	-2.875943
336.488342	-34.548950	-16.420515	-19.122540
336.939026	-29.356981	1.404850	-26.344975
337.389648	-29.808443	12.007229	-19.574059
337.840240	-41.773018	-11.004688	-9.644532
338.290771	-32.291489	2.758511	-4.906438
338.741272	-5.886614	8.623614	-17.768541
339.191681	-14.912663	-20.708544	-14.609018
339.642120	-2.050914	-18.677233	-26.344839
340.092468	-20.554478	0.502391	-5.132008
340.542816	-37.709278	-20.257151	-44.404209
340.993103	-24.391251	2.758241	-46.436409
341.443329	-26.648275	25.764938	-3.552632
341.893555	-43.579136	30.275030	-9.193494
342.343689	-35.677513	33.657410	11.787662
342.793793	-39.741112	11.781724	0.734149
343.243866	-49.901203	-24.093767	-17.768541
343.693878	-58.482346	-34.251282	-35.825405
344.143890	-11.301970	-5.589225	10.659852
344.593842	6.747239	79.186836	67.025169
345.043732	1.107496	126.032730	75.813240
345.493591	-16.266460	137.063400	88.429764
345.943359	-29.582779	84.594093	49.219379
346.393158	-26.196970	113.423950	81.445908
346.842896	-22.134447	125.582314	96.989525
347.292542	-20.780243	150.792465	133.918091
347.742218	-37.709412	107.569000	51.248158
348.191803	-44.256565	38.166771	10.885497
348.641357	-23.488544	14.939529	-28.827871
349.090881	-27.099987	-6.717366	-21.605131
349.540314	-32.742973	-5.363789	-8.742188
349.989777	-17.846312	20.578087	29.153376
350.439148	-44.482151	17.420448	13.592219
350.888489	-36.580406	36.813915	-24.087826
351.337799	3.363323	32.078892	32.761513
351.787048	-18.974689	44.479271	21.260572
352.236267	-11.527699	44.704651	34.565163
352.685425	-29.356981	23.960884	13.592084
353.134552	-44.256702	0.953622	-21.379496
353.583649	-31.614061	3.435263	-41.695076
354.032684	-39.741112	-22.288111	-39.211906
354.481659	-21.006008	8.623614	-19.799685
354.930634	-1.148552	-12.132934	-42.372349
355.379517	-41.998863	-12.809999	-25.893538
355.828430	-32.291351	-29.510799	-19.799685
356.277222	-55.998055	-47.345547	-69.245445
356.726013	-34.323135	-26.125265	-36.051231
357.174774	-58.030525	-35.831619	-23.862047
357.623444	-25.519615	-13.035464	-36.051365
358.072113	-24.616894	21.480104	-17.091555
358.520721	-39.741112	-1.528122	-41.469501
358.969299	-58.933762	46.282700	-3.101370
359.417786	-47.643284	43.352085	15.847705
359.866302	-14.912528	101.938782	31.633833
360.314697	-17.620693	26.441696	-2.650112
360.763123	-25.745535	4.788743	3.892410
361.211456	-25.971319	-1.302701	-24.087692
361.659760	-30.034245	-27.479591	-24.990675
362.108032	-18.974689	-23.416706	-6.711426
362.556244	-45.611176	-36.734379	-27.247723
363.004456	-35.677650	-44.636147	-48.694283
363.452576	-16.040848	0.051157	-28.376280
363.900696	-44.933731	-19.580000	-19.799685
364.348663	-16.943573	2.081617	-21.605131
364.796722	-22.585718	-20.482914	-36.502609
365.244690	-43.127567	-40.572342	-54.113728
365.692596	-40.869907	-48.926235	-44.178623
366.140472	-38.386501	-16.646265	-33.116535
366.588287	-9.045398	-18.451748	-22.508076
367.036102	-43.353283	-23.642483	-36.276783
367.483826	-18.297688	-43.958981	-51.178131
367.931549	-27.776819	-32.445446	-9.419080
368.379181	-18.749067	-8.071380	-2.424416
368.826843	-44.030712	-17.323246	-52.758923
369.274384	-27.551298	-10.778961	-55.920368
369.721924	-19.651833	18.097033	-22.508076
370.169403	-11.302105	-12.584399	-6.485715
370.616821	-28.679861	-16.420515	-11.675666
371.064270	-43.127434	-43.507275	-43.727047
371.511566	-53.514141	-40.572342	-61.566269
371.958923	-23.488409	-22.513882	-37.405785
372.406158	-11.979026	0.502391	21.937113
372.853424	-30.034109	-36.734512	-39.663311
373.300568	-32.517296	-3.333142	-20.476704
373.747711	-19.426073	-20.934175	-28.150620
374.194794	-38.386501	-36.057037	-23.636271
374.641846	-44.030712	-41.926868	-41.920925
375.088898	-30.937050	-40.120659	-25.216457
375.535828	-25.745535	-10.553370	2.087691
375.982758	-10.399466	0.502391	-37.179955
376.429596	-2.276608	-21.611206	-19.799685
376.876465	-4.532920	-19.354240	-37.857174
377.323242	-30.034245	-29.059475	-46.662277
377.769989	-19.877325	-3.333142	-23.636541
378.216675	-26.874199	-11.004688	-41.017815
378.663330	-28.002611	-28.156696	-58.630161
379.109985	-26.874063	-33.799786	-37.179955
379.556519	-2.276743	0.276842	-16.414440
380.003052	-46.514217	-7.394369	-40.566128
380.449524	-35.903202	-14.163748	-45.307507
380.895996	-22.811491	-30.188200	-58.630161
381.342377	-16.040848	-11.907202	-38.985935
381.788727	-20.554613	-21.385572	-29.279058
382.235046	-20.554478	-17.548864	-39.437473
382.681274	8.100778	-10.553504	-20.928099
383.127533	-54.417446	-55.022987	-51.855782
383.573669	-55.320625	-33.122612	-33.116669
384.019836	-1.599798	-2.881882	-31.536543
384.465912	-48.772232	-62.927223	-50.500755
384.911957	-39.063869	-25.448046	-27.924826
385.357971	-52.159210	-26.802357	-61.114559
385.803925	-40.869774	-16.872015	-67.438393
386.249847	-41.772881	-24.545191	-55.242939
386.695679	-22.134176	-26.351049	-22.959351
387.141541	-32.968651	-37.863255	-50.726635
387.587311	-36.580540	-14.615229	-24.764759
388.033051	-30.259911	-18.677368	-34.922523
388.478729	-50.127083	-14.840836	-36.502609
388.924408	-31.162720	-21.385572	-41.920925
389.369995	-26.874199	-16.420650	-25.893402
389.815552	-51.707714	-32.445446	-31.084930
390.261078	-13.784230	-0.399946	-22.507807
390.706543	-15.364017	6.367854	-3.552497
391.152008	-23.714319	-21.836840	-53.436188
391.597351	-40.870041	-28.607880	-40.792107
392.042725	-15.815237	-38.314648	-30.407791
392.487976	-35.903202	-25.448046	-20.702333
392.933289	-55.320488	-6.040641	-34.471024
393.378479	-13.558627	-10.327779	-37.405514
393.823639	-21.005739	4.112007	-17.542923
394.268768	-40.869907	-21.385572	-49.371639
394.713837	-11.527699	22.607708	-13.706599
395.158905	-26.422758	-9.425290	-52.984676
395.603851	-27.776955	-41.249466	-48.016941
396.048798	-36.129025	-42.604408	-50.049271
396.493683	-7.466052	-9.876330	-30.633593
396.938568	-7.240608	-20.482645	-20.702333
397.383392	20.506170	13.586012	7.276295
397.828156	-47.191818	-47.119816	-33.793842
398.272888	-41.998726	-45.539444	-41.695076
398.717560	-42.450287	-28.382357	-42.598331
399.162201	-22.360083	-40.346504	-35.373894
399.606781	-33.645683	-37.411728	-42.598198
400.051361	-43.353283	-45.087860	-30.407791
400.495819	-22.359947	-30.188200	-36.502609
400.940308	-19.651833	-24.545191	-40.114853
401.384705	-11.076511	1.856073	-22.282305
401.829102	-21.231504	-14.615094	-12.352591
402.273438	-20.554613	-4.235538	-20.476704
402.717682	-60.514900	-24.319546	-60.662720
403.161926	-29.131319	-25.448046	-21.379496
403.606110	-39.966949	-15.517932	-47.565334
404.050293	-37.257755	-13.486937	-44.178623
404.494385	-39.741245	-40.572342	-36.051365
404.938446	-36.580540	-44.410290	-54.339485
405.382477	-5.661041	-31.542620	-64.050529
405.826447	-36.580406	-16.646265	-32.439373
406.270386	-32.742840	-27.705246	-47.339603
406.714233	0.881814	-17.548998	-16.865938
407.158081	-22.359947	-18.225857	-39.437473
407.601868	-32.065678	-6.266350	-62.921143
408.045624	-18.974825	-14.164018	-17.994160
408.489319	-33.194328	-18.000372	-39.889011
408.933014	-7.014895	-2.656051	-29.279194
409.376617	-40.192654	-21.385437	-28.602076
409.820190	-11.301970	-35.379974	-49.145897
410.263702	-4.081651	12.909376	-23.410629
410.707184	-21.231640	-0.399946	-42.598061
411.150635	-48.772232	-28.608015	-49.145897
411.594025	-20.554613	-48.474762	-36.276920
412.037384	-46.062630	-21.836975	-46.436409
412.480682	-22.134176	-47.571415	-36.728436
412.923981	-39.063869	-39.217716	-46.210682
413.367126	-46.740086	-38.314781	-36.728569
413.810333	-30.711246	-34.476967	-36.277054
414.253479	-17.846178	-10.102054	-38.308567
414.696533	-46.288490	-33.348427	-29.279194
415.139587	-47.417278	-29.059610	-38.985935
415.582581	15.318995	16.518234	11.111006
416.025543	-28.228405	-19.354376	-34.696705
416.468414	-45.159725	-27.028011	-51.178131
416.911285	-46.965950	-26.351049	-35.825405
417.354065	14.190983	11.556083	-3.101370
417.796875	-37.483582	-45.313583	-45.081779
418.239594	-51.707577	-29.059475	-39.211773
418.682281	-41.773018	20.803425	-48.920025
419.124908	-48.546494	-30.865204	-43.049763
419.567505	-6.112187	-13.261200	10.659852
420.010071	-56.675762	-10.327643	-34.696842
420.452545	-37.031921	-24.996752	-26.344839
420.895020	-64.806030	-47.345684	-54.565250
421.337372	-29.808443	0.276707	-38.308567
421.779785	14.190983	2.081752	1.185243
422.222107	12.161074	16.067392	-16.865803
422.664368	-29.356846	-20.934040	-57.049339
423.106628	-56.675491	-26.125265	-31.987751
423.548798	-37.032059	-34.025600	-39.663174
423.990967	-38.160667	-30.639534	-29.279194
424.433044	-20.328850	-29.511070	-19.122675
424.875092	-29.357117	-26.350916	-36.502609
425.317078	-23.037130	-15.066579	-23.410900
425.759064	-34.774364	-15.743678	-46.662277
426.200989	-32.291489	-7.394234	-18.445671
426.642853	-9.948152	-26.576702	-27.473379
427.084686	-12.881688	-15.969155	-7.162716
427.526459	-29.131319	-10.779096	-29.730522
427.968201	-24.391251	-22.062611	-37.631477
428.409912	-25.293968	-41.249737	-31.536407
428.851563	-26.196970	-11.907202	-11.224207
429.293121	-23.488544	-27.253799	-28.376280
429.734711	-21.006008	-34.928333	-45.081917
430.176239	-44.708008	-12.583995	-27.473513
430.617706	-31.839869	-26.802221	-45.759094
431.059113	-42.224438	-27.479456	-52.081394
431.500488	-50.578571	-41.475307	-35.825542
431.941833	-74.518806	-33.574104	-38.534401
432.383087	-55.546524	-50.958324	-43.952766
432.824341	-13.107424	-28.833813	-36.051365
433.265533	-34.322998	-39.895226	-29.279194
433.706726	-35.677380	-30.865204	-31.084930
434.147827	-22.811491	-19.580000	-46.888008
434.588867	-44.482288	-20.482780	-41.469368
435.029877	-23.037130	-1.076876	-33.568027
435.470825	-57.352936	-29.285273	-47.113735
435.911804	-50.127083	-33.122612	-7.162716
436.352661	-12.430490	-8.748129	-53.887970
436.793518	-31.162720	-13.261335	-29.956322
437.234283	-29.356981	-3.784271	-13.480861
437.675049	-41.095482	-42.152714	-49.597649
438.115723	-38.160805	-24.770971	-17.317305
438.556396	-29.356846	-27.930904	-51.855782
438.997040	-36.580677	-25.899479	-33.793705
439.437561	-24.391251	0.276707	-2.198857
439.878113	-41.998863	-33.799919	-48.242813
440.318573	-22.585718	-19.128750	-26.119186
440.759033	-14.009969	9.074648	-26.119053
441.199341	-26.196970	-30.639534	-20.928099
441.639709	-37.032059	-30.188065	-41.695076
442.079956	-52.610989	-10.778961	-25.667753
442.520264	-39.063736	-32.671124	-39.437473
442.960510	-38.160667	-19.805761	-30.181988
443.400604	3.588995	-4.686674	-20.251209
443.840759	-50.578705	-32.896801	-27.924826
444.280762	-51.256081	-29.736734	-57.952698
444.720825	-33.194328	-8.522545	-27.021933
445.160767	-14.686921	-30.865204	-22.733578
445.600739	-39.063736	-14.615094	-52.984539
446.040558	-56.901260	-32.896801	-34.696705
446.480438	-25.745535	-33.799648	-44.178623
446.920258	-35.226006	-11.004688	-30.633593
447.359955	-22.811491	-32.219639	-18.671158
447.799713	-44.708008	-43.959118	-11.224207
448.239319	-47.643147	-42.604141	-22.959351
448.678955	-29.808443	-15.292188	-11.449936
449.118500	-24.165606	-34.476967	-46.436546
449.558014	-24.617029	-45.087860	-40.791969
449.997498	-17.846312	-52.765003	-61.565998
450.436951	-47.869019	-41.475445	-51.629761
450.876343	-41.547173	-18.677368	-16.865938
451.315674	-6.563607	-28.156696	-17.091419
451.754974	-29.131319	-27.028145	-25.893402
452.194183	-12.204758	-20.482780	-27.247723
452.633392	-28.905521	-39.669388	-52.081261
453.072510	-52.610989	-15.517797	-53.887836
453.511688	-36.580269	-16.872015	-24.764894
453.950684	-25.971319	-18.677368	-33.568027
454.389740	-24.165606	-12.132934	-22.282305
454.828735	-46.514217	-26.350916	-27.924826
455.267639	-42.450287	-35.154152	-29.956322
455.706543	-23.262903	-11.907337	-3.552632
456.145325	-32.065678	3.886471	-9.870390
456.584137	29.526678	30.725899	8.178514
457.022858	-38.612335	-15.292188	-51.629894
457.461578	-50.804585	4.788743	-34.245205
457.900208	-32.742840	-7.394504	-49.371906
458.338867	-32.968513	-13.712540	-21.153864
458.777405	-32.291489	-33.574104	-26.119186
459.215912	-12.881554	-25.222399	-50.500755
459.654388	-9.497110	24.412071	-14.383412
460.092773	-29.356846	-27.930769	-45.533501
460.531189	-51.933460	-22.965427	-57.952835
460.969513	-30.711246	-26.802357	-49.146034
461.407806	-34.323135	-14.163882	-54.113728
461.846008	-25.519751	-20.708408	-27.247723
462.284241	-35.903473	-5.589360	-34.922390
462.722351	-40.870041	-34.928604	-44.178490
463.160461	-31.614468	-22.965294	-36.954262
463.598541	-48.998108	-49.603458	-57.726925
464.036530	-34.548817	-10.778961	-43.727184
464.474518	-39.289570	-50.958462	-49.145897
464.912384	-62.095680	-21.385572	-44.856056
465.350281	-54.868965	-35.831482	-41.469501
465.788086	-32.291489	-28.382357	-3.552632
466.225891	-39.515274	-34.025600	-15.060503
466.663605	-42.675999	-26.125265	-40.114853
467.101318	-33.871635	-39.669388	-25.893402
467.539001	-44.030846	-42.830124	-52.081394
467.976563	-18.297688	-18.451477	-27.022203
468.414124	-40.418224	1.630260	-48.920158
468.851593	-22.134176	-36.734512	-16.640188
469.289063	-31.162855	-4.912378	-2.198992
469.726440	-38.386501	-41.023891	-60.211018
470.163849	-38.160805	-9.425155	-46.662277
470.601135	-28.905521	4.112142	-30.633459
471.038422	-35.451691	-20.708544	-18.220051
471.475677	-48.997974	-12.584129	-26.344975
471.912811	-61.192390	-34.928467	-44.178623
472.350006	-44.933731	-13.035464	-27.022068
472.787048	-59.159672	-21.836975	-47.339603
473.224121	-18.071932	-24.545191	-36.276920
473.661072	-26.874063	-43.055843	-34.245205
474.098053	-23.939962	0.728075	-18.896915
474.534943	-25.745535	-24.996752	-35.825405
474.971802	-42.450287	-23.868259	-52.307148
475.408630	-25.519751	-17.097630	-24.539249
475.845367	-38.160805	-12.358666	-40.114582
476.282104	-14.912528	-25.448046	-38.308701
476.718750	-24.165606	-24.545326	-28.827736
477.155426	-4.307218	-4.461105	19.681725
477.591949	-25.294237	-16.194902	-21.153864
478.028503	-25.971319	-16.420515	-8.516470
478.464966	-46.062897	-42.604275	-64.728050
478.901428	-48.772232	-27.705112	-21.830765
479.337860	-34.548683	-29.511070	-42.146637
479.774170	-55.094727	-14.615364	-38.760235
480.210510	-17.846312	-24.545191	-30.181988
480.646698	-42.450420	-21.836840	-39.437473
481.082947	-21.005739	-15.969155	-51.855511
481.519073	-21.683043	-27.253935	-18.896915
481.955200	-31.839869	-39.669388	-43.952766
482.391266	-29.356846	-31.768291	-28.827736
482.827301	-25.294237	-18.677368	-57.501019
483.263306	-34.322998	-6.943078	-6.937138
483.699188	4.491541	-1.528122	-5.357714
484.135101	-17.394941	18.097033	-2.649977
484.570923	-25.745535	-7.168656	-33.116535
485.006744	-10.399600	-28.833677	-26.344839
485.442413	-60.514767	-28.833948	-62.921143
485.878174	7.198421	14.713766	10.434477
486.313782	-19.425938	-12.809864	-8.967773
486.749390	-3.179122	-23.191202	-31.536137
487.184998	-33.645954	-43.055843	-27.924826
487.620453	-50.804317	-25.447910	-29.279194
488.055939	-47.869019	-12.132798	-25.441969
488.491333	-44.708008	-40.120796	-40.114719
488.926727	-51.707577	-23.642483	-30.859396
489.362030	-34.097317	22.607708	-13.480861
489.797302	-24.617165	-9.425155	-40.791969
490.232513	-39.063869	2.307159	-23.184990
490.667755	-36.806095	-34.476967	-32.665047
491.102905	-43.804989	1.404850	-21.153728
491.537964	-55.772289	-22.288246	-51.629894
491.973022	-15.138272	15.616007	-21.830765
492.407990	-16.266731	-6.943078	-25.667618
492.842957	-12.204758	2.984051	-12.803924
493.277832	-35.451691	-23.191202	-44.404480
493.712738	-33.871502	-13.938143	-33.793842
494.147491	-46.288357	-15.743678	-10.773022
494.582275	-38.838036	-15.969155	-31.536407
495.017029	-15.589626	-6.266215	-12.803654
495.451660	-20.328714	-12.809864	-23.862183
495.886292	-45.385315	-2.205066	-11.901261
496.320831	-23.714186	-43.507275	-18.445671
496.755402	-14.912528	11.781858	1.861878
497.189850	-34.774498	-24.996752	-45.533367
497.624298	-19.426073	-2.656186	9.757670
498.058655	-11.527834	2.081482	-8.290887
498.493042	-37.709141	-22.288246	-24.539249
498.927368	-39.063869	-30.187929	-28.150484
499.361572	-6.337897	14.939665	9.757535
499.795807	3.363458	9.751596	-2.424416
500.229919	-40.869907	-18.000101	-10.998613
500.664063	-18.523308	0.051292	-3.552632
501.098083	-17.394941	-31.316814	-29.279329
501.532104	-63.450699	-14.389623	-57.501156
501.966064	-51.030197	-9.876330	-36.051094
502.399994	-25.068321	-18.000372	-48.694283
502.833893	-23.939827	-8.522545	-32.890858
503.267700	-58.482346	-29.736734	-29.279194
503.701477	-42.224438	26.215975	-2.424686
504.135193	-48.320625	17.420448	7.953130
504.568909	-24.165606	10.653914	-38.308567
505.002502	-44.933865	-13.938278	-2.875538
505.436127	-36.354851	-2.881882	-14.383412
505.869629	-38.838036	-8.973848	-3.327068
506.303162	-24.391251	18.322649	-0.619424
506.736603	-35.677380	-13.035599	-30.181988
507.169983	-12.204758	-11.907202	-24.764759
507.603363	-30.937050	-3.784271	-24.539383
508.036621	-52.159210	16.067257	-12.126858
508.469940	-19.651697	27.794516	9.306372
508.903107	-25.971184	-0.174259	-33.793705
509.336304	-39.740841	-3.558571	-51.404015
509.769379	-31.388660	-31.542484	-25.667887
510.202484	-23.036995	11.781589	-2.650247
510.635529	-53.739899	-13.712404	-27.924826
511.068481	-44.933594	-6.717366	-20.928099
511.501434	-14.235708	24.186344	26.447496
511.934265	-47.191681	4.788743	25.771009
512.367126	-12.430221	43.126698	65.447403
512.799927	-20.328985	11.555947	-18.671158
513.232605	-25.519886	-12.358666	-20.025448
513.665344	-45.836903	-10.102054	-38.308838
514.097961	-18.297688	-13.486937	-4.455166
514.530579	-18.523308	-40.798183	-34.470886
514.963135	-39.063736	-17.323246	-19.348299
515.395691	-17.395077	-2.430490	3.441201
515.828064	-24.391251	-15.066579	-20.251074
516.260498	-33.420006	-9.876330	-6.937138
516.692871	-28.679861	-23.416706	-28.150620
517.125183	4.491271	28.921997	-16.188961
517.557373	-35.903202	-21.159670	-14.609153
517.989624	-4.532920	25.088575	-8.065170
518.421753	-22.134176	-17.774752	-16.640188
518.853943	-63.450836	-25.899479	-22.959351
519.286072	-44.708008	-4.009837	-6.937138
519.718018	-21.457273	8.398231	-11.675666
520.150024	-40.418224	-16.871744	-37.857174
520.581909	-31.388525	-1.302566	17.426521
521.013855	-24.391251	-27.028145	-13.706599
521.445679	-52.159348	12.232733	-33.568027
521.877502	-38.386501	11.104797	-26.796280
522.309204	-34.548683	10.428269	7.501818
522.740906	-18.523443	22.156643	-36.276920
523.172546	-37.031921	-13.261200	-29.279329
523.604187	-37.483311	-12.132934	-34.922390
524.035767	-25.294237	-17.774616	-28.827600
524.467224	-51.707714	-26.125130	-47.791073
524.898682	-45.611176	12.458237	-13.706599
525.330078	-40.192520	-18.225857	-36.502609
525.761475	-41.321323	-39.217716	-12.803788
526.192749	-52.610851	-33.122612	-16.865938
526.624023	-34.322865	-27.028145	-25.893402
527.055237	-31.162855	-7.394369	-12.803924
527.486389	-27.325373	-1.753679	-46.210682
527.917542	-29.808443	-4.235538	-30.859396
528.348572	0.881949	-19.354240	-6.937003
528.779663	-43.127567	-25.673695	-38.760372
529.210571	-24.165606	-15.969155	-35.825405
529.641541	-37.934971	2.081752	-10.773022
530.072388	-34.774635	-7.394234	-8.516604
530.503235	-17.395077	-14.163748	-29.504993
530.934082	-32.065678	-11.004688	-23.410629
531.364746	-41.321323	-6.266215	-34.470886
531.795532	-14.009969	6.593379	-10.772886
532.226135	-16.266596	6.819039	-19.122540
532.656738	-52.384964	39.970253	58.911789
533.087280	25.918612	115.225449	97.665337
533.517822	-31.388525	137.513336	118.608826
533.948242	6.747239	180.940369	114.105652
534.378662	-39.289707	159.118317	99.917648
534.809082	-16.492344	135.037384	69.729073
535.239319	-16.943573	96.983589	32.084961
535.669617	-32.291489	47.409969	22.388180
536.099792	-23.037130	20.577953	-35.825542
536.529968	-58.708256	-18.225990	-31.084795
536.960083	-32.517162	13.585876	-25.893538
537.390137	-1.599934	12.909376	-11.675666
537.820190	-27.776955	-12.358666	-43.727184
538.250183	-53.062492	-19.128750	-50.500755
538.680115	-60.966469	-38.992149	-36.954124
539.109985	16.446579	46.282700	34.790718
539.539795	-50.352825	110.721748	56.657803
539.969543	-25.745535	155.293045	127.839775
540.399292	-9.045668	220.740143	159.124374
540.828979	-7.691767	169.467957	135.268753
541.258606	-19.877459	84.594093	19.230772
541.688171	-52.836605	42.901443	-5.132008
542.117737	-16.943708	43.577602	0.508466
542.547302	-40.644066	24.862850	23.515902
542.976685	-55.546391	3.886336	-18.897186
543.406128	-17.169325	22.833172	21.034967
543.835388	-39.515408	0.276842	-46.887871
544.264771	-33.645683	5.916799	-23.185125
544.693970	-40.644199	2.532701	-32.890858
545.123230	-21.457273	-0.174259	-8.290887
545.552307	-57.804886	-1.979372	-0.619559
545.981506	-9.045668	19.450312	22.613779
546.410583	-47.643147	-19.805761	-5.131873
546.839539	-22.585718	-11.230416	-31.762215
547.268555	-12.655953	-2.204931	12.238671
547.697449	36.291195	21.931175	20.132944
548.126282	-46.740086	-8.973848	-11.449936
548.555054	-28.228540	-31.993830	-24.764894
548.983887	-22.359947	-25.222263	-34.245205
549.412598	-8.368781	-0.625633	-20.476839
549.841309	20.957382	41.548565	33.437653
550.269958	-47.643147	-5.363654	-16.640188
550.698486	-16.266596	-22.513882	-24.539383
551.127075	-25.068321	1.855939	-21.153864
551.555481	-54.868965	-30.413866	-44.178761
551.983948	-52.159210	-29.736734	-44.178623
552.412292	-27.776955	-8.748129	-30.633593
552.840698	-20.328714	-19.128614	-36.728436
553.268860	-31.388391	-8.071245	-16.188826
553.697205	-31.388525	-20.708408	-39.663445
554.125366	-25.293968	5.239806	-33.342346
554.553467	-31.614061	-18.903126	-29.730791
554.981628	-41.321190	13.360647	-15.963214
555.409607	-14.461314	3.660800	-13.480861
555.837646	-52.159348	3.435398	-18.445536
556.265564	-31.162855	15.390650	3.667009
556.693481	-16.266596	28.696287	-12.126858
557.121338	-21.457273	-3.784271	-12.126993
557.549133	-31.162855	-25.222399	-33.568027
557.976929	-45.385315	-6.491790	0.282916
558.404602	-8.142929	29.824024	-5.583285
558.832275	-51.030197	-52.539249	-34.922523
559.259888	-46.965950	-24.545191	-28.150484
559.687439	-18.523308	0.502391	-8.967638
560.114929	-54.191547	-39.217716	-50.726635
560.542419	-41.773018	-46.668217	-29.279058
560.969788	-43.353283	-14.389623	-46.662277
561.397156	-43.353420	-27.930769	-41.920788
561.824524	-27.776819	-23.416706	-41.695076
562.251770	-32.968651	-58.862152	-39.663311
562.679016	-49.901203	-24.093903	-20.928099
563.106140	-40.418362	-28.608015	-11.901261
563.533264	-19.877459	15.390380	-9.193628
563.960327	-40.644199	-10.102054	-20.702333
564.387329	-37.483582	1.404715	-32.665180
564.814331	-36.128891	5.240076	-21.153728
565.241272	-32.517162	-24.996616	-20.476839
565.668213	-20.780378	40.872250	19.456383
566.094971	-18.523443	27.343353	-0.168455
566.521790	-18.297688	8.848996	6.148265
566.948425	-38.386501	20.126871	-40.340557
567.375183	-26.197105	-29.962399	-7.162581
567.801819	-55.546524	0.953757	-14.609153
568.228394	-35.451691	-1.528122	-3.778332
568.654846	-28.679861	11.781724	-17.994295
569.081421	-25.068590	14.939395	9.306372
569.507874	-24.842810	17.871550	-16.188961
569.934265	-17.846447	-8.296962	4.118080
570.360596	-14.912528	-1.753679	-22.959217
570.786865	-42.901852	-24.319546	-35.373894
571.213074	-42.901852	2.532836	-44.630066
571.639282	-61.643963	-0.851322	-21.379496
572.065430	-24.391251	19.224834	-20.025312
572.491516	-24.391384	-8.748263	-4.906438
572.917603	-32.517162	-7.394369	5.020348
573.343567	-57.127163	-6.040641	-25.893402
573.769531	-45.385452	-3.558706	-21.153864
574.195435	-15.364017	73.103416	35.692654
574.621277	-37.483582	51.241955	14.719838
575.047119	-36.806232	67.244537	41.554501
575.472839	-26.196970	64.765419	21.711645
575.898560	-10.850649	229.056625	169.248978
576.324158	-15.815237	301.385345	220.071732
576.749817	-5.661041	339.986359	287.246613
577.175293	-33.645683	256.245941	177.122406
577.600830	-34.097317	148.767044	82.347275
578.026306	7.649601	118.377655	95.638130
578.451721	-31.388525	83.467529	51.924355
578.877136	-46.514355	32.304184	16.524172
579.302429	-50.804317	47.409832	21.260572
579.727661	-15.815237	74.229904	45.612507
580.152832	-21.231640	72.652596	50.346592
580.578064	-15.589626	51.692932	63.193928
581.003113	-39.515274	88.649178	48.317646
581.428223	-22.585718	141.114838	81.896523
581.853271	2.912110	178.691330	157.324173
582.278198	-18.523308	221.189865	158.224152
582.703125	-35.226006	160.243469	116.807701
583.127930	-34.322998	142.015167	92.259262
583.552795	23.663509	195.334290	122.661758
583.977539	-23.714319	237.147339	147.872711
584.402283	-37.709007	1765.499390	1458.532104
584.826965	-39.966679	7381.114746	6676.283203
585.251587	-20.554613	10691.855469	9275.159180
585.676208	-42.450287	11791.591797	9557.999023
586.100647	-40.644199	7389.884277	5440.279297
586.525208	-4.081786	4549.645508	3307.355957
586.949524	-30.485579	3288.101563	2335.645020
587.373962	-28.453932	3889.346436	2957.933350
587.798218	-29.356981	7556.826172	6506.294922
588.222534	-21.908541	9251.059570	7858.868164
588.646729	-53.514278	9357.903320	7478.603516
589.070984	-51.481831	5604.542969	4130.137207
589.495117	-38.160938	3421.031982	2476.234863
589.919128	-35.451824	2493.023682	1815.197998
590.343201	-33.194462	1932.269043	1372.151855
590.767151	-32.517296	1453.005981	1022.081238
591.191101	-29.808443	1033.623413	687.925781
591.614990	-30.485579	623.618042	443.112061
592.038818	-16.266596	370.939972	234.906006
592.462524	-46.288490	232.652756	151.698715
592.886292	-32.065678	221.864166	142.246246
593.310059	-41.095749	408.825928	311.717163
593.733582	-31.839869	3568.887939	3135.507324
594.157227	-46.288490	10074.104492	9241.796875
594.580750	-54.191547	13289.230469	11567.609375
595.004272	-54.869099	13272.549805	10713.679688
595.427673	-46.965950	7604.782715	5674.005371
595.851074	-33.420277	4969.942871	3601.674561
596.274353	-13.784365	3598.218506	2617.912842
596.697632	-31.162720	3183.796387	2332.804932
597.120911	-34.548817	4060.378418	3329.627197
597.544067	9.002984	4366.103027	3587.010742
597.967224	-33.194191	4129.917480	3306.706787
598.390320	-2.502303	2563.877441	1872.988281
598.813354	7.424079	1603.235596	1162.751709
599.236328	-30.937050	1062.040894	753.949829
599.659241	-43.127567	815.449036	549.868958
600.082153	-50.804317	623.618408	391.348969
600.505005	-58.707851	444.226227	283.204773
600.927795	-34.774635	294.200989	174.423294
601.350525	-26.874063	201.180954	115.456490
601.773254	-37.031921	180.040741	110.277405
602.195862	-50.352692	866.884094	750.605225
602.618408	-51.933460	2712.384521	2500.880859
603.040955	-1.825356	3746.252197	3288.539795
603.463440	-8.368781	3985.209717	3189.864746
603.885925	-21.683043	2395.045654	1802.667358
604.308350	-26.196970	1568.626831	1109.754883
604.730652	-65.483429	1136.362915	785.377808
605.152893	-41.095482	821.908447	629.878174
605.575195	-71.807869	682.786865	497.071899
605.997375	-59.159672	533.536255	403.677277
606.419495	-23.488544	982.531677	771.782654
606.841553	-44.482422	5448.120605	4905.190918
607.263672	-49.675327	9637.292969	8709.209961
607.685608	-47.869019	11771.738281	9990.744141
608.107605	-43.353283	9309.742188	7116.685547
608.529480	-58.708122	6012.659180	4465.617676
608.951294	-5.661041	10221.465820	8507.064453
609.373108	-10.399330	16854.673828	14873.565430
609.794800	-49.675327	19693.669922	16810.923828
610.216553	-32.742840	17035.255859	13181.474609
610.638123	-22.585718	9761.702148	7222.733887
611.059753	-27.551163	6380.697754	4644.726563
611.481262	-38.160805	4589.608887	3281.402100
611.902832	-22.585718	3439.822510	2471.872559
612.324219	-23.939827	2895.190186	2101.342285
612.745605	-25.068457	2421.023682	1822.011963
613.166931	-40.644199	2440.884033	1899.123657
613.588196	-21.231504	10905.028320	9571.765625
614.009460	-38.838036	24439.800781	22501.996094
614.430664	-66.612862	31063.638672	27169.414063
614.851807	-14.009969	29315.332031	23250.919922
615.272827	-51.256081	16829.615234	12522.808594
615.693909	-18.297688	14200.182617	11014.361328
616.114929	-14.686786	15123.772461	12272.258789
616.535889	-18.974554	15125.369141	12212.448242
616.956787	-16.492208	12372.430664	9422.923828
617.377563	-5.435469	7593.523926	5501.562012
617.798340	-17.846312	4872.366699	3516.897949
618.219055	-44.030437	3247.864014	2274.012451
618.639832	-41.095615	2263.293213	1611.615723
619.060364	-37.934971	1574.138428	1080.245728
619.481018	-18.749067	1095.107056	750.382507
619.901611	-45.611176	690.820679	474.463318
620.322083	-48.094887	474.681396	301.840424
620.742493	-37.032059	817.453857	660.917480
621.162842	-20.328850	3958.136475	3606.417725
621.583191	-52.385235	6528.996094	5866.069824
622.003418	-33.194328	7717.512207	6496.622559
622.423706	-36.806232	5851.480469	4437.593262
622.843872	2.009810	3522.718506	2570.856689
623.264038	-35.000183	2408.363037	1733.606689
623.684143	-40.869907	1774.736328	1270.623779
624.104126	-8.819948	1438.210083	998.090881
624.524170	-18.297688	1112.854248	780.697693
624.944031	-28.002611	789.828491	578.039673
625.364014	-33.194462	670.957336	512.512634
625.783752	-34.322998	2743.709961	2313.357178
626.203552	-5.886614	9958.978516	9208.222656
626.623230	-42.224575	14149.718750	12384.552734
627.042969	-6.337897	15492.466797	12662.175781
627.462585	-12.881554	9920.855469	7332.873047
627.882141	-26.422623	6209.252441	4490.855957
628.301697	-40.192520	4376.378906	3173.408691
628.721130	13.288855	3433.991211	2431.287109
629.140625	-56.901531	2620.520996	1826.187378
629.559998	-41.321594	2525.078369	1851.019653
629.979309	-23.037130	4241.000000	3640.479736
630.398560	-26.196970	5175.478027	4457.062012
630.817810	-28.002611	5503.041016	4551.574219
631.237000	-23.262903	3793.397949	2844.584229
631.656067	-39.741112	2411.637207	1750.107300
632.075195	-41.547173	1813.433228	1341.420288
632.494202	-46.288490	3285.939453	2592.209473
632.913208	-41.772747	11913.701172	10975.889648
633.332092	-24.842674	17632.250000	15651.175781
633.750977	-54.869099	20078.210938	16818.681641
634.169739	-43.353283	14207.190430	10687.372070
634.588562	-28.228405	8517.827148	6185.227051
635.007263	-32.291351	5990.280273	4303.360840
635.425964	-39.741112	4497.907227	3220.169678
635.844543	-21.231504	3514.303223	2462.708740
636.263123	-30.034245	2664.287109	1844.867065
636.681641	-59.837284	1917.561035	1367.288330
637.100037	-61.869884	1644.658203	1227.670776
637.518494	-39.289570	6982.478027	6121.546387
637.936829	-10.173740	17363.507813	16210.155273
638.355164	-24.165741	22452.019531	19935.759766
638.773438	1.107631	22912.003906	18526.955078
639.191650	-52.158943	16586.916016	12670.240234
639.609863	-36.354851	32894.906250	28974.224609
640.027893	-48.094887	47603.437500	42388.171875
640.445984	-30.711246	54226.632813	46327.855469
640.863953	-34.097317	43363.656250	33240.101563
641.281921	-27.551163	26222.023438	19211.683594
641.699829	-46.740086	17685.714844	12856.840820
642.117676	-13.107288	13069.825195	9374.165039
642.535461	-55.998325	9888.669922	7073.573242
642.953247	-17.169325	7238.199219	5186.538574
643.370972	2.686705	5077.861816	3624.527832
643.788635	-16.943573	3068.542969	2217.368896
644.206177	-35.451962	1700.148560	1201.975708
644.623718	-29.808310	938.074402	647.967957
645.041260	-35.000183	514.520386	337.748718
645.458618	-20.554613	338.191437	203.435608
645.876099	-38.612068	209.275177	158.449371
646.293396	-25.745535	181.165375	123.562508
646.710693	-57.127300	172.392731	111.403336
647.127991	-34.548817	134.362106	68.377068
647.545166	-30.711382	128.734390	80.319550
647.962341	-23.488544	123.781395	44.710857
648.379333	-55.094860	136.613052	70.630615
648.796448	-38.612335	168.343246	92.709793
649.213379	-59.837147	294.201141	242.771301
649.630310	-20.328985	1836.950317	1515.477051
650.047180	-26.648411	11941.229492	11124.224609
650.463989	-43.127434	20148.853516	18449.449219
650.880859	-49.675461	24007.416016	20610.900391
651.297546	-18.974689	18741.386719	14333.911133
651.714233	-34.097317	11243.968750	8282.222656
652.130859	-35.000183	7788.519043	5789.111328
652.547485	-55.998055	8494.014648	6625.037598
652.963928	-12.430355	10856.958008	9123.323242
653.380432	-25.519751	11524.799805	9429.711914
653.796814	-56.223953	10066.527344	7707.103516
654.213196	-52.159348	5948.043945	4389.228027
654.629578	-24.617029	3770.796387	2711.301758
655.045837	-26.648411	2591.332520	1836.736572
655.462036	-38.612335	1906.583130	1382.761230
655.878174	-46.288624	1411.702637	971.870544
656.294312	-31.614197	1068.699585	710.015015
656.710327	-36.354851	714.693787	435.271820
657.126404	-46.740086	405.016052	255.128601
657.542358	-21.683043	274.440430	195.790253
657.958252	-39.740974	165.868408	96.088776
658.374084	-48.320488	145.616135	117.933510
658.789917	-13.558627	537.785950	446.695984
659.205688	-21.231640	4097.084961	3733.768066
659.621338	-37.031921	7916.275879	7300.697266
660.037048	63.566879	9825.917969	8562.545898
660.452637	-17.846447	8572.474609	6600.457520
660.868164	-16.943573	5022.957520	3730.322754
661.283691	-16.943708	3383.871582	2456.818604
661.699158	-42.450287	2491.715332	1791.014282
662.114502	-8.142929	1970.893066	1372.814941
662.529846	-29.356981	1492.300903	1032.740601
662.945129	0.205033	1088.006958	774.680298
663.360413	-19.200314	683.902344	492.819458
663.775635	-41.095749	387.980286	255.802673
664.190674	-52.836605	229.281464	152.823746
664.605835	-6.789184	204.778564	132.792572
665.020813	-13.558492	153.717850	81.671417
665.435791	-13.784230	176.216797	115.006256
665.850769	-34.774498	136.838089	91.133102
666.265625	-40.869907	198.932251	113.430016
666.680420	-13.558627	658.902344	557.248047
667.095215	-30.034245	6105.931641	5557.728027
667.509949	-48.998108	12731.515625	11842.434570
667.924622	-58.256432	15806.423828	13859.360352
668.339233	-56.675762	14516.969727	11267.545898
668.753784	-36.580677	8516.169922	6253.089844
669.168335	-24.165606	5698.977051	4126.274414
669.582825	-23.037130	4278.074219	2999.157715
669.997192	16.446579	3379.550537	2352.029785
670.411560	-24.617165	2671.688477	1854.974731
670.825867	-31.162855	3978.763672	3228.826660
671.240173	-24.842810	8288.232422	7489.246094
671.654358	-41.547035	10316.968750	8964.099609
672.068481	-33.646088	10666.769531	8603.105469
672.482605	-62.321602	6763.389648	4931.822266
672.896667	-57.804886	4293.286621	3034.943848
673.310669	-31.162855	2979.193115	2153.245117
673.724609	10.582118	2355.299805	1670.212280
674.138489	-14.461179	1798.704224	1249.592896
674.552307	-34.774498	1326.817749	930.519653
674.966064	-17.620560	936.962769	631.888794
675.379822	13.739987	612.448364	419.812408
675.793579	-35.000183	297.344330	219.847137
676.207153	-39.063736	179.815857	112.979637
676.620789	-7.240473	103.515190	78.517014
677.034241	6.747239	74.455040	22.839245
677.447754	-19.651833	48.311848	24.869057
677.861206	-12.655953	39.293922	27.575006
678.274597	-35.677650	22.607843	10.208695
678.687866	-32.742973	19.450176	-12.578189
679.101135	-33.194328	36.588505	-15.285977
679.514404	-47.417416	14.713766	-39.663174
679.927551	-52.385101	1.404715	-14.157806
680.340698	-6.112322	11.104933	-11.901261
680.753723	-46.965950	-30.639805	-20.928099
681.166748	-31.614332	-22.513882	-22.282305
681.579712	-46.288761	-3.784271	-25.893538
681.992615	3.814532	41.097641	15.622079
682.405457	5.619333	52.594479	16.975414
682.818298	5.844997	13.811645	11.336514
683.231018	-10.399466	28.921997	20.358553
683.643738	3.589130	18.322649	12.915314
684.056335	-48.998108	3.209455	5.245879
684.468994	-21.457273	-1.302431	-1.747740
684.881531	-20.103222	18.773607	0.959561
685.293945	-21.005875	-14.615229	-23.636541
685.706482	-54.869099	-7.845664	-7.839589
686.118774	-18.071932	34.784916	14.945467
686.531128	-19.651833	17.420448	10.659852
686.943481	-51.481831	3.886471	-9.193358
687.355713	-7.466052	58.004135	19.005024
687.767883	-44.708008	2.758511	-33.793842
688.179932	-49.675461	23.509695	9.757535
688.592041	-39.966949	26.215975	-17.994295
689.004089	-38.160805	0.051022	-10.547430
689.416016	-53.965790	21.705708	17.426386
689.827881	-50.804317	18.548128	2.764450
690.239868	-35.000183	28.470980	5.922873
690.651611	-27.776955	39.519455	29.153376
691.063354	-20.554613	39.744991	53.051514
691.475098	-21.683043	130.985535	121.085716
691.886719	-6.112322	1046.723389	890.925293
692.298340	-14.686921	5945.086914	5664.900879
692.709900	-9.948152	9904.661133	9227.585938
693.121460	-34.097317	11707.706055	10034.788086
693.532837	-19.426073	9200.594727	6975.991211
693.944214	-39.289570	5633.134766	4098.378418
694.355652	-38.838169	3883.541016	2798.510986
694.766846	-31.162720	2857.831543	2042.173828
695.178101	-35.903202	2240.549561	1602.580200
695.589294	-30.485579	1730.519897	1214.381348
696.000366	-39.515408	1278.585815	901.381775
696.411438	4.716939	874.006897	581.615906
696.822510	-6.112322	522.351318	339.543701
697.233459	-40.418224	274.215912	183.420792
697.644409	-32.742840	157.993408	114.781136
698.055298	-39.741112	103.064728	86.177155
698.466064	-53.288246	73.779099	30.732105
698.876831	-13.107288	91.352379	42.230942
699.287537	-14.009969	79.412224	64.546051
699.698181	-35.903202	56.651733	30.957405
700.108826	-29.582645	79.637474	39.750790
700.519348	-34.097317	101.037971	45.161480
700.929810	-12.430221	151.917511	96.989655
701.340271	-6.112322	321.810638	268.157776
701.750732	13.965351	956.971924	868.893738
702.161011	-19.877459	3641.336182	3315.572510
702.571350	-45.836903	18511.646484	18051.998047
702.981567	16.897419	30249.548828	28310.402344
703.391724	-28.002611	35296.968750	30885.841797
703.801880	-48.094887	28263.488281	21660.978516
704.211914	-11.302105	17082.775391	12880.001953
704.621948	-36.354851	11956.207031	8908.989258
705.031921	-15.815372	8945.108398	6624.197266
705.441895	-30.485579	7241.753418	5250.927246
705.851746	-16.717958	5666.801270	4071.977539
706.261536	-17.394941	4206.700684	3050.338623
706.671265	-11.527969	2853.051758	2011.259155
707.081055	-43.804989	1682.977051	1215.046143
707.490662	-17.169325	932.515198	663.150208
707.900330	-12.656089	527.272766	368.254883
708.309814	-12.430355	293.527496	197.589035
708.719299	-20.780107	209.499939	153.273972
709.128784	-5.209763	165.643356	117.257919
709.538147	-17.846312	97.659142	49.219379
709.947510	-10.399600	52.820099	44.936237
710.356750	-34.322998	24.411802	0.959561
710.766052	-25.519751	48.086212	-17.091555
711.175171	-47.417549	19.675922	-17.317305
711.584290	-21.231504	37.264870	-9.870390
711.993347	-58.707985	14.488404	-20.928099
712.402405	-1.825356	44.253754	38.849052
712.811401	-7.014760	20.577953	-13.932202
713.220276	-8.143064	8.172577	-6.260005
713.629150	-53.965656	15.165023	-21.605265
714.037964	-46.062763	-7.845664	-29.279194
714.446777	-16.266596	18.096897	-11.449936
714.855408	-15.815372	20.803560	-13.029523
715.264099	-28.905521	-29.962399	-4.003762
715.672668	-41.772747	-12.132934	12.915449
716.081177	-58.030659	42.225010	25.996326
716.489746	-58.707985	443.106140	401.660034
716.898132	-20.554478	1425.619873	1340.757202
717.306519	-33.194462	1915.804565	1748.567627
717.714844	-37.257889	2044.799194	1646.426392
718.123108	-28.228270	1403.969727	1009.642639
718.531372	-34.322998	886.023926	634.568726
718.939514	-18.297552	648.854919	447.367737
719.347595	-26.197105	492.365906	349.414642
719.755676	-25.745535	376.769928	244.793488
720.163696	-22.585718	301.385345	208.381744
720.571716	-42.901852	180.265884	127.614441
720.979614	-42.675999	147.191528	94.737236
721.387451	-34.548817	81.890457	49.895599
721.795227	-6.563472	77.609795	60.038685
722.202942	-29.582645	69.272430	35.467236
722.610718	-40.869907	66.342934	40.427120
723.018311	-18.749067	146.966537	100.368126
723.425903	-22.811491	1026.072632	911.392578
723.833374	-37.257755	6131.454102	6105.937988
724.240906	-45.385315	10511.878906	10004.879883
724.648376	-26.196970	12552.257813	11112.223633
725.055725	-32.968651	10420.788086	8044.745117
725.463013	-10.625192	6498.720215	4885.585938
725.870300	-32.968513	4510.737305	3313.194336
726.277466	-31.388525	3362.045654	2468.380859
726.684631	-41.998863	2596.560791	1855.633301
727.091797	-30.711517	2015.200562	1429.602295
727.498779	-31.162720	1498.480469	1060.270996
727.905823	-35.903336	1053.605591	756.847778
728.312805	34.036617	691.713623	463.492340
728.719666	22.987125	396.947083	263.216034
729.126526	20.957247	218.941895	166.099258
729.533264	-36.354851	91.802788	68.602493
729.940063	-32.291351	84.368729	31.859533
730.346680	-21.457273	37.715687	8.855205
730.753357	2.461030	6.142327	17.652004
731.159851	-18.297688	21.028761	4.117945
731.566406	-8.819948	-2.881612	-22.282169
731.972900	-27.099852	-9.425290	-28.601940
732.379272	-13.333025	-2.881882	-15.511723
732.785645	-22.360083	-6.040506	-27.247723
733.191895	-35.451691	-20.482780	-22.056534
733.598206	-25.745535	6.142191	-25.893402
734.004333	-18.974689	-6.942943	-8.516470
734.410522	5.619333	16.743856	-13.029523
734.816528	-42.224575	-19.805761	-28.601940
735.222656	-10.399466	-6.040641	-10.998479
735.628662	-30.485445	-20.934040	-18.896915
736.034546	-31.614197	-31.993830	-29.279194
736.440430	-39.740974	-20.482780	-31.536407
736.846252	-44.256565	-6.266350	-5.132008
737.252014	-29.131319	-14.615229	-29.279058
737.657715	-19.651697	-21.159941	-16.414574
738.063354	-11.302105	-3.333007	-16.414440
738.468933	-34.548817	2.081752	-21.153728
738.874512	-40.869907	-2.430625	-24.087826
739.280029	-33.871502	-19.354376	-41.469368
739.685486	-35.000320	-16.195038	-32.890858
740.090881	8.551950	6.593514	1.862148
740.496216	-14.686921	-13.938143	-39.211773
740.901550	-7.014895	19.450176	-0.845383
741.306702	-6.789184	18.096897	11.787662
741.711914	-20.103222	-6.040641	-8.290887
742.117004	2.461030	3.209455	-4.906303
742.522095	-32.517029	28.470980	14.268847
742.927124	-30.259911	665.152954	599.718445
743.332031	-52.385235	2257.389648	2235.962891
743.737000	-33.871502	3277.719727	3024.534912
744.141785	-17.394941	3534.155762	2982.236084
744.546631	-28.679726	2428.007813	1885.727539
744.951355	-8.143064	1654.129395	1220.361816
745.356079	-24.391251	1166.070679	883.804443
745.760620	-48.546494	876.677185	602.176453
746.165283	-36.806232	678.322693	510.498932
746.569824	-41.547173	531.746582	350.536224
746.974243	-35.451824	402.998749	294.656372
747.378723	-27.099852	298.242645	196.464966
747.783020	-26.648275	231.753601	164.299545
748.187378	-26.196970	400.085022	390.900452
748.591614	-44.708008	611.778015	532.423767
748.995850	-10.173875	718.709290	595.472656
749.399963	-16.943708	542.930054	399.642761
749.804077	-32.291351	356.810760	232.209015
750.208130	-60.063065	241.416946	178.697128
750.612122	-32.517162	201.180954	114.330765
751.016052	-37.483582	131.435654	81.445908
751.419922	-48.997837	79.862724	61.391010
751.823792	-41.095615	65.441597	32.310390
752.227478	-3.630385	36.362823	17.877487
752.631226	-5.435604	156.868210	132.792572
753.034851	-29.357117	379.011841	364.890747
753.438477	-29.808310	563.502380	533.765625
753.842102	-24.842810	726.515991	663.819641
754.245544	-4.758624	605.969055	484.089844
754.648987	-20.554613	515.415527	367.806213
755.052368	-25.971319	356.362305	249.287323
755.455750	-33.420006	259.840240	162.724442
755.859009	-60.514629	176.441666	112.754242
756.262268	-39.063869	143.815552	78.291763
756.665405	-20.328850	110.721748	87.979195
757.068542	-21.457273	34.559231	37.270805
757.471680	-19.651697	61.384941	11.787662
757.874634	-37.257755	7.721536	-28.150484
758.277588	-32.968651	-13.261200	-39.663174
758.680420	-13.333025	-17.548864	-30.181988
759.083374	-49.901203	-22.513882	-29.956322
759.486084	-35.226006	-19.805761	-66.534889
759.888916	-32.968651	-22.288246	-35.148209
760.291504	-62.321468	-25.899479	-31.987886
760.694214	-46.514217	-24.996752	-57.952698
761.096802	-51.030197	-40.346638	-48.468548
761.499268	-35.225868	-25.222399	-49.823524
761.901733	-58.030525	-43.507275	-47.565472
762.304199	-31.162855	-9.876330	-21.379362
762.706543	-15.815237	-18.451612	-29.504858
763.108826	-25.745535	-4.686674	-17.768541
763.511108	-32.517162	-31.993830	-30.633459
763.913208	-31.614197	-13.938143	-37.405785
764.315369	-41.095749	-44.410561	-22.508076
764.717529	-32.065678	-22.965294	-36.051231
765.119568	-13.784230	16.743992	5.697074
765.521545	-25.971319	-25.222263	-32.213696
765.923462	-18.523443	-13.486802	-27.021933
766.325317	-36.806095	-14.615229	-28.150484
766.727112	-46.965816	-37.185898	-37.405785
767.128845	-12.655953	-16.646265	-7.839589
767.530518	-43.804855	-47.797283	-20.251074
767.932251	-20.554613	-14.389488	-20.702467
768.333862	-40.192654	-40.572208	-62.695488
768.735413	-18.974825	-26.350916	-34.245205
769.136841	4.265872	13.360513	14.719973
769.538269	-15.138272	-14.840971	4.794816
769.939636	-25.971184	-0.625633	-49.146168
770.341003	-37.483582	-26.802357	-29.730387
770.742249	-21.682907	-15.517932	-40.114853
771.143433	-29.582645	-27.253799	-44.630199
771.544617	-25.745535	-59.539623	-49.146034
771.945740	-18.748932	-7.394369	-4.003897
772.346802	-39.740974	-24.996752	-35.825405
772.747803	-46.288490	-22.062611	-54.791145
773.148682	-36.129025	-31.768156	-39.889011
773.549622	-23.262903	-14.389488	-43.952766
773.950439	-13.784230	-14.615364	-48.694283
774.351196	-68.193939	-24.770971	-50.500755
774.751892	0.205168	11.556217	-9.419080
775.152588	-12.881554	-18.451612	-45.081779
775.553162	10.130960	-12.133069	-13.706599
775.953735	11.484422	11.104933	9.532022
776.354309	-24.617029	-28.608015	-16.865803
776.754639	-41.998726	-33.573833	-38.308701
777.155090	-32.968513	-33.348560	-37.631477
777.555420	-42.450287	-29.962534	-33.568027
777.955750	-53.288246	-47.797150	-36.728436
778.355896	-30.485445	-17.548864	-38.083004
778.756104	-16.492344	-0.399946	-34.245205
779.156189	-31.839869	-36.508686	-43.049763
779.556274	-25.294104	-24.093903	-37.631477
779.956299	-49.449585	-29.962534	-20.250940
780.356201	-51.707577	-23.868124	-46.662277
780.756165	-21.908541	-24.093903	-28.827736
781.156006	-38.838169	-27.705246	-7.839724
781.555786	-35.677380	-19.354240	-33.793705
781.955505	-18.297688	-34.025600	-40.566265
782.355225	-39.515274	7.044564	-26.344975
782.754761	-30.937050	-34.025463	-41.469501
783.154358	-32.065678	-34.702785	-39.437336
783.553894	-44.482422	-33.122478	-43.727047
783.953369	-29.582779	-40.572342	-60.436939
784.352783	-59.385590	-18.225857	-61.565998
784.752075	-16.943708	-12.133069	-39.437473
785.151367	-38.838169	-50.506969	-23.862047
785.550598	-17.620693	-25.448181	-33.793705
785.949768	-5.209763	-9.199433	-34.245205
786.348877	-38.160805	-48.926235	-61.114422
786.747986	-30.711246	-23.191202	-34.922523
787.147034	-33.420139	-22.739655	-38.534538
787.545959	-34.548950	-24.093903	-50.500755
787.944885	-29.131319	0.728075	-17.542923
788.343750	-49.675327	-27.479456	-40.791969
788.742493	-41.773018	-16.420515	-30.182121
789.141235	-45.385315	-43.055706	-66.083275
789.539917	-44.256432	-47.571281	-53.662079
789.938538	-29.582779	-32.896801	-30.407791
790.337158	-29.808443	-22.965294	-51.404015
790.735718	-25.745535	-16.420515	-34.019524
791.134094	-48.546494	-43.281559	-58.856071
791.532532	-28.228405	-6.943078	-18.219915
791.930847	-6.789184	-6.943078	-1.070937
792.329224	-23.037130	-5.363789	-30.182121
792.727417	-37.934837	-23.416842	-38.534401
793.125610	-39.966949	-37.186031	-49.146034
793.523682	-48.094887	24.411802	2.087556
793.921753	-45.837036	38.392174	19.907333
794.319824	-28.002611	36.813915	16.749794
794.717773	-30.034245	42.225010	10.659852
795.115723	18.025379	19.224834	25.996595
795.513550	-35.226006	4.563210	16.749794
795.911377	-31.614332	15.616277	-19.574059
796.309082	-6.338032	36.588505	34.565434
796.706787	-34.323135	-8.296962	-16.640324
797.104370	-33.871502	-19.128614	-12.803788
797.501953	5.619333	9.526083	-2.875808
797.899536	-23.263039	-24.093903	-36.728436
798.296936	-17.620693	-28.608015	-13.255124
798.694397	-18.297688	-31.768023	-36.728436
799.091736	-24.165606	-23.642483	-8.065305
799.489014	-36.806095	-38.089085	-44.856056
799.886230	-2.502303	12.007093	-19.348299
800.283447	-0.697443	1.179169	-18.219780
800.680542	-9.270984	-9.876330	-24.764894
801.077637	-32.517162	-29.736870	-47.791073
801.474670	-51.256081	-35.605793	-26.570627
801.871643	-36.354851	-23.416842	-39.211636
802.268555	-34.774498	-20.482780	-20.025448
802.665405	-19.651833	-46.668354	-50.275013
803.062256	12.386713	-26.576567	-25.893538
803.458923	-20.554478	-18.903126	-28.602076
803.855652	-55.094860	-54.345566	-73.311241
804.252258	23.437914	17.420448	3.666874
804.648804	-29.582645	-32.896801	-50.500622
805.045410	-28.002747	-8.522545	-41.243656
805.441833	-10.625057	1.179304	1.185243
805.838257	-35.903336	-17.774616	-21.605131
806.234619	-14.461179	-0.625633	-20.025448
806.630859	-25.519751	-16.420515	-31.988022
807.027100	-53.288383	-40.346504	-38.534401
807.423279	-37.257755	21.480104	6.825248
807.819458	-35.903336	37.039326	47.190533
808.215515	-60.966469	42.450397	25.319967
808.611572	-14.009969	68.371132	70.630745
809.007507	-39.289707	37.490276	15.847705
809.403381	-20.780243	10.202757	-0.394006
809.799194	-14.912663	20.577953	-7.613873
810.195068	4.040338	23.735291	-5.583150
810.590759	-21.683043	-13.486802	2.764450
810.986450	-34.323135	4.111872	19.681858
811.382080	-20.554478	35.912132	-6.260140
811.777649	-21.683043	2.532836	18.103104
812.173157	-1.599529	23.058636	16.298683
812.568665	-44.933865	-6.491925	-5.583285
812.964050	-11.527834	71.751350	84.374794
813.359375	-23.037130	74.455315	62.968483
813.754639	-24.842810	96.758270	48.994015
814.149841	-16.266596	49.664169	25.320103
814.545105	-36.354851	52.143772	20.584160
814.940186	-30.259911	30.951468	9.757670
815.335266	2.235623	-6.491790	18.103104
815.730347	10.130960	44.028641	39.525391
816.125244	-37.031921	-16.871880	-25.216187
816.520203	22.986990	7.946922	-5.583420
816.914978	-24.617029	-16.871880	-39.663174
817.309753	-40.869774	-7.394504	-46.662411
817.704468	-24.165741	-8.973848	-43.952766
818.099182	2.686705	17.420448	2.764585
818.493774	-40.192520	-41.475578	-43.049629
818.888367	-9.496840	9.751462	5.922602
819.282898	-44.256565	-43.732994	-36.051231
819.677307	6.296187	-12.133069	0.959561
820.071716	2.461030	7.946922	-26.119186
820.466003	-33.645683	-27.028011	-13.932202
820.860291	-31.840004	-20.482914	-40.791969
821.254517	-6.337762	6.367854	-0.168455
821.648743	-36.580540	-22.739790	-51.404015
822.042786	-32.517162	-17.097630	-37.631344
822.436890	-34.323135	-51.410091	-43.275616
822.830872	-15.363747	-0.174529	-15.060503
823.224792	-48.094753	-40.346504	-49.823254
823.618774	-39.740974	-20.031389	-54.791279
824.012512	-61.644100	-39.217850	-76.925766
824.406311	-43.127705	-22.965427	-23.862047
824.799988	-31.839869	-29.510935	-34.019390
825.193665	-25.293968	-3.558706	-29.279194
825.587280	-5.435469	-0.625633	-0.393871
825.980835	-5.209763	23.058905	26.447496
826.374329	-34.774635	28.470980	12.464310
826.767761	2.009945	55.750252	27.800316
827.161194	-29.131319	12.909376	10.659852
827.554443	-38.160667	15.390650	-10.998613
827.947754	-38.386501	-27.028145	-10.095979
828.340942	-9.496975	4.788608	-12.578189
828.734131	-42.675999	19.901398	-6.711291
829.127136	-32.968651	66.793671	60.489326
829.520264	-42.450287	127.608650	156.424210
829.913208	-18.297688	247.708496	188.143814
830.306152	-30.485714	216.244354	171.498749
830.699097	-22.134447	166.543182	117.483032
831.091797	-18.297688	112.523186	78.742271
831.484619	-48.772232	74.229767	9.532022
831.877319	2.009810	105.542130	68.827782
832.270020	-13.558763	56.651733	14.719838
832.662537	-35.903202	17.871550	4.569283
833.055054	-43.804989	-27.028011	-17.768677
833.447510	3.814667	33.882832	21.260572
833.839966	-44.933731	-20.934175	-20.928099
834.232361	-43.353283	-47.119953	-52.758923
834.624634	-33.645683	-36.734379	-33.342213
835.016907	6.747374	-3.107174	-29.956322
835.409058	-37.935108	-19.128614	-63.373001
835.801208	-49.675327	-13.486937	6.148400
836.193298	-29.808443	31.402332	-7.614008
836.585327	-17.169325	204.778290	169.248978
836.977295	-27.776955	622.724365	640.375183
837.369202	-35.226006	1000.528687	937.191162
837.761047	-53.514141	1158.534180	980.092896
838.152832	-48.094887	964.529785	722.284058
838.544617	-39.966812	707.332092	562.837708
838.936218	5.393804	566.632568	435.271820
839.327942	-18.297688	407.705505	306.554565
839.719421	-22.585718	316.200134	211.529419
840.111023	-7.014895	221.414719	155.074280
840.502380	-11.527699	149.667130	128.290039
840.893860	-36.806095	150.117371	105.548058
841.285217	-14.461314	205.228119	191.517365
841.676453	-14.912663	217.817947	209.505997
842.067749	-26.196970	176.441666	135.043579
842.458862	-23.939827	126.933434	75.587975
842.849976	-27.325506	104.866669	55.981655
843.241028	-27.551298	51.467579	35.466969
843.632019	-43.127567	25.764803	13.592219
844.022949	-17.846178	21.931175	-29.956457
844.413879	-55.772423	-1.077011	-27.021933
844.804749	-39.063869	-15.969290	-17.994295
845.195496	-47.869019	-40.120796	-23.636406
845.586182	-34.774498	-12.132798	7.727339
845.976807	-15.138272	-6.491925	-17.317171
846.367432	-35.903336	-5.814932	-17.091555
846.757996	-31.839869	12.007229	-22.733713
847.148499	-11.076511	7.270357	-33.568027
847.538879	7.198556	10.879424	-0.168320
847.929260	-40.418362	-15.743543	-12.352591
848.319641	-0.020652	108.469841	102.845772
848.709839	-23.488544	291.057922	288.145081
849.100098	-38.160805	485.650757	472.896240
849.490234	-25.745535	599.712280	485.209167
849.880310	-10.625327	536.443970	402.332520
850.270325	-33.871635	379.012115	293.533661
850.660339	-26.648544	306.773193	222.769653
851.050171	-21.006008	251.078766	175.322998
851.440125	-9.722427	153.042801	119.284538
851.829895	-23.714319	79.412224	78.742271
852.219604	-43.579002	79.186836	44.034573
852.609314	-28.905386	32.980736	25.319832
852.998901	-29.131319	3.209590	-33.342213
853.388550	-32.291489	1.404985	-23.410765
853.778015	-28.002611	7.946922	-17.994295
854.167480	-28.002747	-18.451612	-47.339603
854.556885	-11.527699	-34.025463	-20.251074
854.946228	-19.651968	4.788743	-8.967773
855.335571	6.070660	-22.739655	-36.051231
855.724731	-30.937050	-12.809864	-50.274876
856.113953	-44.707874	-22.965427	-34.470886
856.503052	-42.450287	-19.580000	-35.373894
856.892151	-32.065678	-20.708544	-41.695076
857.281067	-23.036995	-4.686809	-15.286113
857.670105	-29.356981	-8.071245	-29.730791
858.058960	-24.617029	51.467579	50.121231
858.447754	-19.426073	122.205391	103.746414
858.836609	18.250862	203.878998	162.949661
859.225281	-11.302105	189.037399	146.747742
859.613892	6.070525	145.391266	90.682556
860.002502	-41.547173	53.045311	50.797440
860.391052	-39.063736	54.848484	33.889038
860.779541	-8.819948	49.438808	13.140950
861.167969	1.784267	46.959225	40.427391
861.556335	-28.905521	32.529881	5.245879
861.944702	-41.095749	-0.174394	-20.025312
862.332947	-42.676136	64.539978	5.471545
862.721069	-19.426073	121.980156	118.834068
863.109253	-28.454065	136.162979	133.017624
863.497314	-19.651833	170.817841	139.995514
863.885376	-19.200314	145.841400	128.064850
864.273315	-19.877325	174.417099	146.072327
864.661255	-58.256432	273.766846	246.366486
865.049072	-7.691767	365.109192	343.581757
865.436890	-37.032059	369.369965	314.635071
865.824707	-3.855950	346.492157	248.163925
866.212280	-17.394941	250.854141	164.524216
866.599915	-21.908676	177.566513	127.614708
866.987488	-23.262770	160.693497	101.494377
867.375061	-20.554613	152.142761	103.521385
867.762451	-15.364017	187.463074	124.687782
868.149841	-18.071932	148.767044	99.242126
868.537170	-10.850783	114.099586	56.432602
868.924438	-14.461314	67.019096	26.898664
869.311707	-34.097588	26.215706	28.026030
869.698853	-37.483582	21.931175	10.885497
870.085938	-44.256432	21.254637	18.554201
870.472961	-24.842810	19.450176	-15.060503
870.859985	-20.780107	7.721266	-17.542923
871.246887	9.454421	15.841767	8.629687
871.633789	-26.196970	-7.620084	-14.609153
872.020569	-11.979026	-10.327643	-20.025312
872.407349	37.418785	48.086212	33.437653
872.794067	-10.625192	23.058636	-17.091555
873.180725	0.881949	-10.778961	1.410924
873.567322	-17.169325	-8.071380	-40.566265
873.953796	-41.998592	-6.491925	-25.667753
874.340332	-21.908541	-12.358666	-38.985802
874.726624	-13.558763	-5.138083	-10.096114
875.113037	-40.869907	-5.363789	-45.759094
875.499329	-32.065678	-38.088947	-24.087826
875.885559	-26.874199	-14.840701	-19.348299
876.271729	-21.005739	-28.156427	-40.114853
876.657898	-24.842810	17.646067	7.050637
877.044006	-16.492208	120.179001	114.330765
877.429932	-19.651833	327.870056	291.063965
877.815918	-9.722427	419.582611	335.953857
878.201782	-28.002747	456.544373	368.927582
878.587585	13.288855	407.257233	307.901184
878.973389	-14.461179	281.177795	192.191986
879.359070	-1.374242	235.574234	175.322998
879.744751	-30.485579	148.541901	121.986351
880.130310	-66.386917	106.217850	60.489326
880.515930	-7.014626	52.143772	28.702492
880.901367	-43.127705	37.941093	-3.778197
881.286804	-19.200314	38.617443	-3.101370
881.672180	-21.683043	12.684010	-26.570627
882.057434	-53.062492	-3.558571	-17.091555
882.442749	-44.482151	-32.896801	-22.056534
882.827942	-31.614332	12.684010	-27.473244
883.213013	-47.191681	-11.456011	-4.229464
883.598145	-25.971319	-5.814932	-6.034566
883.983154	-25.519751	-16.872015	-13.706464
884.368042	-25.068457	14.037413	-23.636541
884.753052	-45.385315	42.450264	35.466969
885.137817	-49.449585	59.581699	73.334755
885.522644	-8.594230	118.377792	135.043579
885.907349	-39.289570	107.343719	69.729340
886.292053	-25.745535	113.874466	81.220665
886.676636	-18.749067	75.807312	58.686192
887.061157	-10.625192	50.565746	53.727829
887.445740	-33.871635	19.901398	16.073330
887.830078	-20.780378	14.939395	1.862013
888.214539	-2.953560	44.254021	12.238806
888.598816	1.558722	20.126871	9.080721
888.983093	-17.395077	16.969208	-4.906303
889.367249	-39.741245	-13.261200	-42.824047
889.751465	-34.774498	-40.346638	-36.953991
890.135498	-28.002611	-28.608150	-40.340557
890.519531	-11.753294	-0.625633	-15.511723
890.903503	-35.226006	-15.292188	-31.310600
891.287415	5.393939	10.428134	17.426386
891.671326	-18.974689	1.179169	16.749794
892.055054	-39.515274	23.735155	5.471545
892.438843	-31.388660	-3.558706	-15.286113
892.822510	-25.745535	-14.389623	-40.791969
893.206116	-26.422623	-9.425020	-45.984684
893.589661	-35.903202	-19.354376	-35.825542
893.973206	-50.804317	-38.766178	-23.185125
894.356628	-33.645821	-12.358531	-27.247723
894.739990	-18.523308	-20.482780	-42.824184
895.123352	-13.784230	-17.774616	-38.308838
895.506592	-8.819948	-2.656186	-22.282305
895.889832	-33.871502	-28.608150	-37.631344
896.272949	-53.514278	-6.040506	-23.636541
896.656067	-47.868885	-4.686674	-10.321704
897.039063	-1.148552	16.067257	-4.680734
897.422058	-16.266596	-29.736599	-40.566128
897.804993	-35.677513	-13.261200	-43.501331
898.187866	-26.874199	-22.739655	-15.060639
898.570618	-8.594364	-21.385708	-23.636406
898.953369	-16.718094	-41.701157	-20.928099
899.336121	-24.391251	-26.350916	-16.640188
899.718689	-19.200314	-29.962534	-25.667753
900.101257	-32.065678	-27.028145	-44.630066
900.483704	-0.020652	-18.677233	3.215663
900.866211	-23.714319	-17.548864	-31.762079
901.248596	-65.257629	-36.282997	-48.468681
901.630920	-10.850783	-27.930904	-27.247858
902.013184	-44.933865	-45.087860	-57.501019
902.395386	-3.630385	-27.930904	-27.699169
902.777588	-44.708008	-21.836840	-25.893538
903.159668	-14.009969	-22.062611	-38.760372
903.541687	-42.224438	-41.927002	-60.211018
903.923645	-38.838036	-24.319679	-30.859262
904.305603	-35.677513	-25.222534	-54.565384
904.687500	-40.418362	-31.993965	-48.694283
905.069275	-60.740685	-38.088814	-54.565384
905.451050	-37.032059	-45.313583	-35.825272
905.832642	-11.979026	-11.004823	-6.937138
906.214294	-3.630385	14.713901	-47.565472
906.595825	-25.971319	-12.809864	-27.924826
906.977417	-33.645821	-11.004688	-31.310600
907.358826	-14.687056	-15.517797	-21.830900
907.740234	-33.871773	-41.701157	-44.404346
908.121582	-24.842810	-2.430490	-23.862183
908.502869	-9.722427	6.819039	-4.680734
908.884033	-20.780243	-2.430760	-2.649977
909.265198	-34.097317	-18.451612	-29.504993
909.646301	-22.359947	-27.479456	-15.060503
910.027344	-32.291489	-30.639669	-33.116535
910.408325	-21.457273	-9.650877	-16.188826
910.789246	-23.262770	-23.416842	-36.051231
911.170105	-20.780107	-13.938278	-25.893402
911.550903	-25.293968	-15.066579	-20.476568
911.931641	-29.357117	-12.358531	-31.536407
912.312317	-37.934971	-35.831619	-55.694466
912.692932	-36.354580	-24.093903	-39.211636
913.073547	-13.107154	-0.399946	-37.405785
913.453979	-26.196970	-33.122612	-33.342213
913.834473	-44.256432	-6.040506	-11.675396
914.214783	-13.784230	-2.881882	-14.609288
914.595154	-9.948016	43.803123	43.583538
914.975464	-8.819948	-1.076876	25.770874
915.355652	-21.457273	6.142327	-15.737468
915.735840	-9.271119	17.871550	-7.388159
916.115845	13.965351	0.502391	-4.455166
916.495972	-17.620693	13.586282	6.373927
916.875854	-22.360083	-20.482645	-25.216322
917.255859	11.258780	4.112007	-26.570492
917.635620	-29.582779	-12.809999	-34.245205
918.015503	15.770112	-20.934040	-18.445536
918.395203	2.686705	-10.327643	-15.511723
918.774902	-32.065678	-28.608015	-47.565334
919.154480	-52.384964	-14.615364	-44.630337
919.534058	24.791206	57.328003	38.398243
919.913574	-24.165741	28.921997	15.171095
920.292969	-39.063736	6.367718	2.764450
920.672363	-6.337897	-4.686674	1.185243
921.051636	-42.901718	-4.912378	-34.471024
921.430969	-12.656089	31.627764	-7.388294
921.810181	-34.323135	-11.681605	0.057231
922.189331	-35.677513	13.135013	5.020483
922.568420	-46.062897	-10.553504	-20.928099
922.947388	-17.395077	5.916799	4.343615
923.326416	-19.200314	0.276707	-18.671158
923.705261	-38.386501	2.532836	-24.313604
924.084106	12.612215	27.794516	29.604523
924.462891	-9.948152	-20.257151	-23.636406
924.841675	-17.620693	-5.138083	-17.768541
925.220337	-27.551163	-14.389623	-30.182121
925.598938	-21.457273	-30.639534	-36.276783
925.977478	13.739853	24.411802	9.983318
926.355957	-27.099852	-32.219639	-4.680869
926.734436	-57.578979	-29.736599	-36.051094
927.112732	-2.953560	15.390380	17.200901
927.491089	-37.934971	-27.705112	-29.053532
927.869324	-36.354851	-18.677233	-49.145897
928.247559	-8.819948	-9.199569	-13.255260
928.625671	-35.903202	-35.605659	-34.470886
929.003723	-30.711246	-2.430490	-9.193494
929.381775	-41.095615	-8.522680	-44.178623
929.759705	-39.966812	-22.288246	-23.185125
930.137634	-46.514355	-16.872015	-44.855923
930.515381	-18.749067	5.014275	-2.198992
930.893250	30.203259	39.293922	32.310253
931.270935	-17.169189	11.556083	-4.229464
931.648560	-33.871635	-23.416842	-26.796280
932.026123	-29.582645	-1.753814	-48.016941
932.403687	-34.097450	-4.686809	-40.566265
932.781250	-36.128891	-5.138217	-18.896915
933.158630	34.487328	59.356510	48.543148
933.536011	-23.714186	-23.416842	-16.865938
933.913208	-35.677513	-36.282997	-49.146034
934.290527	-48.772232	-31.316814	-44.855923
934.667664	25.918747	35.235615	-8.967638
935.044800	-27.099852	-20.708408	-67.664200
935.421814	-37.709412	-25.448181	-21.153864
935.798889	-36.806232	-3.107444	-26.344839
936.175842	-44.256565	-22.739655	-24.764894
936.552673	-5.209763	-2.430625	-17.768541
936.929504	-10.173875	-20.257015	-33.568027
937.306274	-68.193939	1.179169	-36.954262
937.683044	-32.291489	-22.514017	-4.003897
938.059570	-54.643204	-28.382357	-52.984810
938.436218	16.221092	48.762581	20.358553
938.812744	-49.675327	-25.447910	-44.630199
939.189148	-18.523308	-23.190931	-37.857174
939.565613	-37.483448	-37.185898	-34.470886
939.941956	-37.483448	-29.510799	-51.404015
940.318237	1.784267	9.074918	-19.348434
940.694458	-11.527699	-10.102054	-36.277054
941.070557	-41.321323	-30.865204	-55.694466
941.446655	-24.842810	6.819039	14.945333
941.822693	-41.773018	-20.257015	-16.640188
942.198669	-15.138272	-5.363789	1.410924
942.574646	-25.519751	-2.204931	-60.211018
942.950562	-33.420006	4.111872	-36.276920
943.326294	-28.905521	-28.608015	-36.728436
943.702026	-27.551163	-12.132934	-11.675530
944.077698	-46.514355	-16.646130	-32.213696
944.453369	-34.774498	-38.766178	-31.084930
944.828918	-24.391251	-11.455875	-24.990540
945.204468	-24.165606	-26.350916	-29.504858
945.579834	-18.974825	-4.235403	-20.476839
945.955261	-25.294237	-13.486937	-37.857174
946.330627	-29.131048	-38.540478	-44.855923
946.705811	-28.905521	-22.062611	-20.025448
947.081055	-38.386501	-44.862003	-58.630295
947.456177	-30.711246	-1.302431	-33.342346
947.831238	-26.648275	-46.894085	-55.242802
948.206238	-7.466052	-27.253799	-31.310600
948.581238	-43.353283	-20.934040	-45.081779
948.956116	-13.558627	-3.784271	-36.051365
949.330933	-56.675629	-43.733128	-40.792240
949.705811	-12.204622	-10.327779	-43.952766
950.080505	-33.645954	-19.354376	-37.631615
950.455139	-55.772289	-46.442490	-37.857174
950.829773	-39.515274	-22.288246	-57.501019
951.204346	77.988594	83.467529	63.869991
951.578735	4.265872	19.675922	-3.552497
951.953186	-25.068457	-12.358531	-24.087826
952.327515	-46.965950	-36.057175	-29.730522
952.701843	-11.301970	-21.159805	-20.251074
953.076172	-69.775055	-19.128479	-50.274876
953.450195	-36.354851	-25.222399	-21.830900
953.824341	-41.095615	-20.934175	-24.990540
954.198486	-59.385727	-38.766312	-64.502258
954.572449	24.565615	5.239806	1.185243
954.946350	-25.519751	-14.615094	-31.762215
955.320251	-24.842674	-7.394234	3.892410
955.694092	-34.097317	-30.639534	-17.768541
956.067871	-11.302105	-23.191067	-24.313335
956.441589	-5.435469	-6.943078	-4.455166
956.815125	-37.031921	-29.510935	-33.342213
957.188721	-13.107288	-16.646265	-22.282169
957.562256	-47.417416	-47.797150	-38.534538
957.935730	-54.643341	-23.416842	-32.439373
958.309021	-48.546360	-39.669254	-45.307644
958.682373	-28.905521	-39.669254	-45.758957
959.055664	-34.548817	-50.280952	-38.308567
959.428955	-36.354851	-13.938143	-41.920925
959.802063	-24.617165	-45.991035	-69.471260
960.175110	-32.065678	-40.572342	-58.630161
960.548157	-41.095615	-38.540344	-44.404346
960.921143	-35.903202	-32.445313	-37.631344
961.294128	-33.420139	-18.902990	-52.533035
961.666809	-30.711246	-32.219639	-55.694466
962.039612	-27.776955	-27.253799	-29.730656
962.412415	-20.328850	-38.314648	-44.404480
962.785095	-49.223846	-26.124994	-56.146133
963.157715	-34.097317	-41.475445	-48.017078
963.530151	-49.675327	-25.899479	-26.344839
963.902649	-44.030575	-40.121063	-55.920368
964.275146	-27.551163	-33.122612	-49.597649
964.647522	-29.582645	-38.540478	-50.726635
965.019714	-49.449585	-31.091009	-38.534401
965.392029	-25.519886	-4.009972	-29.504858
965.764160	-32.065678	-23.191067	-13.029658
966.136292	-18.974554	-17.774616	-27.473379
966.508423	-50.127083	-14.840836	-37.631344
966.880371	-53.514008	-21.159805	-26.796144
967.252319	12.612215	21.029165	-14.609153
967.624207	-42.901585	-27.930904	-63.372868
967.996094	-44.482151	-20.934040	-40.791969
968.367737	-25.745535	-9.424885	-37.179955
968.739441	-38.612202	-23.642483	-27.022068
969.111084	-42.224438	-30.188065	-42.598198
969.482666	-53.062492	-47.345684	-41.017948
969.854248	-51.481831	-13.261200	-45.984955
970.225586	-40.869907	-32.671261	-20.251074
970.596985	-25.745535	-24.093767	-43.953037
970.968323	-29.131184	-30.639399	-30.407656
971.339661	-24.391251	-20.482780	-22.282305
971.710754	-11.753429	-24.996752	-14.609153
972.081909	-10.850649	0.953622	5.697209
972.453064	-0.020382	-14.615229	-39.889011
972.824097	26.144333	28.020094	34.339745
973.194946	-53.288383	-16.872015	-43.049763
973.565918	-25.971319	-14.840836	-31.762215
973.936768	-9.722698	-20.482645	-42.146770
974.307556	-26.874063	-52.313362	-66.083138
974.678284	-22.811491	-5.589225	-48.694283
975.048828	-21.231640	-30.413866	-30.859127
975.419495	-18.523308	-6.266080	-41.920925
975.790039	-46.288624	-37.863388	-51.855644
976.160522	-8.368781	-7.168791	-36.051231
976.530884	-1.374242	-20.257015	-43.501465
976.901245	-17.394941	-34.702919	-31.084795
977.271606	-24.617029	-12.133069	-27.924692
977.641846	-23.939827	11.330305	-0.394141
978.012024	-19.877459	-26.576838	-38.308701
978.382019	-39.966812	-29.285137	-44.404346
978.752136	2.461030	36.137547	1.636469
979.122131	-3.179122	-4.009972	-3.101505
979.492065	-44.482151	-18.677233	-66.535027
979.861877	-49.223980	-28.833813	-56.371899
980.231689	-21.005875	-52.990757	-38.534538
980.601440	-44.256432	-27.479321	-38.985935
980.971191	-33.420139	-25.448181	-11.901261
981.340820	-39.063736	-25.899479	-52.307148
981.710266	-21.683043	-7.394234	-28.601940
982.079773	-25.294237	-2.430490	-17.317171
982.449280	-24.842810	-36.508686	-37.857174
982.818604	-5.661041	0.502391	-7.162716
983.187866	-43.804989	-21.836975	-30.407791
983.557129	-26.422758	-33.348289	-23.636271
983.926331	-40.869774	-16.194767	-10.773022
984.295471	-35.451824	-28.382221	-28.827871
984.664612	-37.709278	-44.862003	-61.340214
985.033569	-37.032059	5.916799	-23.862047
985.402527	-21.231504	-23.642483	-59.985237
985.771362	-35.226006	-6.266350	-6.937003
986.140259	-16.266596	-26.576567	-25.442104
986.508911	-23.488544	-9.650607	-31.536407
986.877625	-30.485714	11.330576	0.959561
987.246277	-26.874063	-35.605793	-56.371899
987.614929	-15.815237	-48.700363	-43.275478
987.983459	6.747239	-14.389623	-24.539249
988.351807	-19.200447	-25.448181	-21.379496
988.720215	-52.384964	-53.893917	-38.082870
989.088623	-49.901203	-52.313225	-56.823708
989.456909	-8.594230	8.172577	-9.644667
989.825012	-25.971184	-20.934040	-47.791344
990.193115	-33.194462	-24.996616	-65.179794
990.561279	-11.979026	-9.425290	-39.437336
990.929321	-47.643284	-29.285002	-63.598797
991.297302	-14.912528	-16.646265	-31.987751
991.665100	-27.099716	-14.389623	-36.728436
992.033020	-1.825356	-15.969290	-23.636271
992.400818	-37.257755	-35.605793	-63.824593
992.768494	-16.266596	-7.845529	-3.326933
993.136047	-12.430355	-7.845664	-36.954124
993.503723	-24.617029	-52.764732	-58.404385
993.871277	-16.717958	-13.486937	-20.702333
994.238770	-39.063736	-17.323246	-44.630066
994.606140	-51.707577	-24.545191	-32.439373
994.973450	-25.068457	-39.217850	-50.952381
995.340759	-55.094860	-30.639534	-45.759094
995.708008	-39.289570	-21.385437	-50.049133
996.075195	-35.451553	-41.927002	-31.310600
996.442200	-31.839869	-24.770971	-7.388429
996.809265	-1.148687	-28.833677	-39.889011
997.176270	-70.904434	-19.128750	-59.307762
997.543152	-23.488544	-32.219639	-27.473379
997.910095	-41.547173	-28.608150	-24.764759
998.276733	-21.005739	-20.482780	-45.984818
998.643494	-48.772232	-60.668800	-38.308701
999.010193	-68.645561	-60.894722	-28.150620
999.376831	-27.099852	-28.608150	-39.889011
999.743286	-36.129025	-28.833948	-34.470886
1000.109802	-30.485579	-22.288246	-17.542923
1000.476257	-37.483582	-32.896801	-27.021933
1000.842651	-31.614061	-49.377853	-42.823914
1001.208923	-18.523308	-36.508686	-43.275616
1001.575134	-23.714319	-41.249870	-34.245342
1001.941284	-40.644066	-39.669388	-53.662079
1002.307434	-48.772232	-60.668800	-52.532902
1002.673523	-50.804317	-29.510935	-38.760235
1003.039429	-35.677650	-55.474510	-38.083004
1003.405334	-26.196970	-12.584265	-8.290887
1003.771179	-38.838036	-50.506836	-47.565472
1004.137024	-23.714319	-35.154289	-37.631344
1004.502808	-51.707577	-55.700413	-58.178608
1004.868408	-31.388525	-16.420515	-26.344975
1005.234009	-44.030575	-34.477100	-35.373894
1005.599609	-19.651833	-0.400081	-29.053532
1005.965149	-52.385101	-45.990898	-58.404385
1006.330444	-33.645821	-39.669388	-48.017078
1006.695862	-47.643147	-32.896935	-32.890858
1007.061218	-26.874199	-29.285137	-51.178265
1007.426453	-17.169325	-19.354240	-13.255124
1007.791626	-50.352692	-28.833677	-34.245205
1008.156677	-32.065678	-14.840701	-25.216457
1008.521729	0.656267	-1.077011	-18.896915
1008.886780	-44.030712	-45.087860	-37.180092
1009.251709	-38.612335	-41.249466	-45.759094
1009.616577	-46.062763	-4.461105	-44.178623
1009.981384	-34.323135	-27.479591	-44.404346
1010.346130	-11.527699	2.984051	-10.773022
1010.710754	-22.134312	9.525948	-13.706464
1011.075439	-5.209898	-8.522545	-25.216322
1011.439941	-38.386501	-34.025463	-15.963214
1011.804443	-26.196970	-17.097494	-38.534538
1012.168884	-58.708122	-42.604275	-42.823914
1012.533325	-45.611176	-25.447910	-34.019390
1012.897522	-31.388525	-27.930904	-34.696842
1013.261780	-49.449451	-31.542620	-51.404015
1013.626038	-41.095749	-40.120796	-17.994295
1013.990112	-41.547306	-18.902857	-39.211773
1014.354187	2.461164	-24.770971	-14.383412
1014.718140	-25.971319	-6.943078	-18.220051
1015.082153	-4.984193	-35.379974	-27.022203
1015.446045	-15.363881	3.435128	-16.640188
1015.809937	-16.492208	-37.637424	-24.087826
1016.173523	-25.520021	-44.636147	-34.922523
1016.537170	-25.971319	-34.928333	-50.952248
1016.900879	-23.714186	-23.642483	-57.726925
1017.264404	-32.517162	-21.611341	-55.920368
1017.627991	-28.002747	-7.168791	-48.242813
1017.991333	-45.611176	-18.451748	-57.726925
1018.354675	-24.842810	-21.159941	-22.733578
1018.718018	-25.971319	-25.222263	-58.630161
1019.081299	-32.742973	-10.778961	-37.631344
1019.444397	-23.036995	-38.314781	-15.963214
1019.807495	-54.417446	-52.539116	-40.566399
1020.170593	-35.226006	-39.217716	-33.568027
1020.533691	-25.745535	-30.865339	-41.469368
1020.896606	-46.062763	-27.479456	-37.179955
1021.259460	-41.321323	-30.188200	-30.407791
1021.622253	-22.811356	-26.125265	-41.017815
1021.985046	-37.709412	-36.282997	-34.471024
1022.347778	-39.741245	-37.637154	-49.823254
1022.710327	-61.644100	-50.280952	-29.053396
1023.072876	-49.675327	-46.216763	-57.952698
1023.435364	-57.352936	-32.445446	-60.888638
1023.797852	-22.359947	-27.253666	-41.469368
1024.160278	-52.384964	-47.797150	-45.081779
1024.522461	-44.256432	-36.057308	-54.339485
1024.884766	-55.094860	-42.152714	-55.694466
1025.246948	-56.223953	-10.778961	-34.696705
1025.609131	-47.417549	-52.313362	-39.889149
1025.971069	-35.000320	-13.035464	-33.793842
1026.333130	-54.191547	-54.345566	-62.243637
1026.694946	-17.395077	7.495744	-30.633459
1027.056885	13.514354	9.074918	-32.439373
1027.418823	-15.589626	-46.668354	-32.439507
1027.780396	-24.165472	-31.316814	-30.181988
1028.142090	-44.030712	-15.066579	-32.890991
1028.503784	-22.811356	-28.833813	-49.145897
1028.865479	-40.418362	-8.973713	-47.791073
1029.226807	-17.169325	-22.965158	-41.920925
1029.588135	-31.614197	-31.316814	-57.501156
1029.949707	-22.585718	-26.125265	-54.113728
1030.310913	-37.483448	-29.736599	-25.893538
1030.672241	-28.905386	-33.799786	-17.994295
1031.033325	-37.032059	-43.733128	-31.085066
1031.394531	3.814802	-1.077011	-12.578189
1031.755493	-21.682907	-25.222399	-36.276920
1032.116577	-50.352962	-45.539310	-41.017815
1032.477417	-25.519751	-13.035464	-31.988022
1032.838257	-42.675865	-19.354376	-51.629894
1033.199097	-27.551298	-28.608150	-44.404480
1033.559937	-20.554344	-36.508686	-41.920925
1033.920654	-34.774635	-29.059475	-65.631531
1034.281128	-43.579136	-34.477100	-33.116535
1034.641724	9.228636	-1.528122	-27.473513
1035.002197	-12.204758	-1.302431	-28.601940
1035.362671	-5.435469	-7.168791	-11.449936
1035.722900	-35.451824	-42.378426	-26.796144
1036.083252	-19.651833	-7.620084	-14.609153
1036.443481	-52.610718	-39.443550	-45.533367
1036.803711	-42.676136	-36.734379	-41.469368
1037.163940	0.204898	3.435263	2.764450
1037.523804	-16.717823	-15.292188	-11.901261
1037.883789	-43.127567	-34.928467	-52.984676
1038.243774	-31.162855	-23.416706	-41.243656
1038.603638	-26.648411	-0.400216	-4.906303
1038.963257	-39.063869	-15.969155	-39.437473
1039.323120	-67.064613	-51.184208	-65.631531
1039.682861	-48.320488	-46.668217	-56.371899
>>>>>End Processed Spectral Data<<<<<
