Jaz Data File
++++++++++++++++++++++++++++++++++++
Date: Sat Oct 24 19:41:15 2015
User: jaz
Dark Spectrum Present: Yes
Reference Spectrum Present: Yes
Processed Spectrum Present: No
Spectrometers: JAZA2310
Integration Time (usec): 3050 (JAZA2310)
Spectra Averaged: 1 (JAZA2310)
Boxcar Smoothing: 0 (JAZA2310)
Correct for Electrical Dark: Yes (JAZA2310)
Strobe/Lamp Enabled: No (JAZA2310)
Correct for Detector Non-linearity: Yes (JAZA2310)
Correct for Stray Light: No (JAZA2310)
Number of Pixels in Processed Spectrum: 2048
>>>>>Begin Processed Spectral Data<<<<<
W	D	R	S
188.301102	0.000000	0.000000	0.000000
188.764923	0.000000	0.000000	0.000000
189.228699	1479.026123	1564.311401	-37.951992
189.692459	1595.732300	1548.600952	-45.402336
190.156158	1582.266235	1541.867920	9.211631
190.619812	1638.375000	1582.266235	-55.337650
191.083435	1629.397583	1562.067017	-23.054144
191.547043	1566.555786	1591.243652	-100.067482
192.010590	1613.687134	1606.954102	-18.089081
192.474091	1562.067017	1588.999268	-0.714451
192.937561	1636.130615	1629.397583	24.097698
193.401001	1615.931396	1613.687134	4.248866
193.864410	1575.533203	1582.266235	4.248866
194.327759	1645.108032	1602.465332	-10.642067
194.791077	1613.687134	1591.243652	14.174114
195.254349	1580.021851	1629.397583	56.337803
195.717575	1669.795776	1564.311401	31.539263
196.180786	1562.067017	1633.886230	76.169128
196.643951	1577.777466	1636.130615	91.038498
197.107071	1609.198364	1631.641846	-13.124300
197.570145	1580.021851	1571.044434	-0.714451
198.033203	1606.954102	1613.687134	41.459812
198.496216	1566.555786	1633.886230	103.426659
198.959167	1618.175781	1658.574097	41.459812
199.422089	1566.555786	1575.533203	61.296215
199.884979	1573.288818	1577.777466	21.616924
200.347855	1597.976685	1611.442749	-42.918873
200.810654	1622.664551	1638.375000	24.097698
201.273422	1613.687134	1645.108032	71.211952
201.736160	1580.021851	1705.705444	-35.468845
202.198853	1562.067017	1640.619263	-35.468845
202.661514	1557.578369	1571.044434	-77.698326
203.124130	1550.845337	1663.062744	-13.124300
203.586700	1539.623535	1624.908813	26.578234
204.049240	1564.311401	1611.442749	-47.886040
204.511734	1597.976685	1597.976685	-5.678050
204.974197	1564.311401	1649.596680	-3.196131
205.436615	1571.044434	1600.221069	-42.918873
205.899002	1548.600952	1649.596680	36.499744
206.361343	1597.976685	1651.841064	-23.054144
206.823654	1571.044434	1629.397583	-30.502596
207.285919	1537.379272	1624.908813	-32.985664
207.748123	1537.379272	1488.003540	-57.821774
208.210327	1548.600952	1602.465332	-10.642067
208.672485	1535.134888	1622.664551	4.248866
209.134583	1546.356567	1667.551514	14.174114
209.596649	1544.112305	1640.619263	9.211631
210.058670	1588.999268	1577.777466	58.816990
210.520676	1584.510620	1611.442749	34.019489
210.982635	1544.112305	1568.800171	-55.337650
211.444534	1541.867920	1575.533203	19.136045
211.906403	1557.578369	1582.266235	1.767260
212.368240	1604.709717	1633.886230	19.136045
212.830048	1602.465332	1669.795776	-52.853626
213.291779	1535.134888	1638.375000	-37.951992
213.753494	1577.777466	1665.307129	-8.160073
214.215179	1546.356567	1613.687134	-25.536900
214.676819	1541.867920	1584.510620	-35.468845
215.138412	1485.759155	1568.800171	-5.678050
215.599960	1595.732300	1692.239380	-25.536900
216.061493	1555.333984	1564.311401	-18.089081
216.522949	1550.845337	1613.687134	-60.306007
216.984406	1629.397583	1609.198364	-60.306007
217.445801	1595.732300	1573.288818	51.378838
217.907166	1562.067017	1559.822754	-72.728485
218.368484	1609.198364	1640.619263	-0.714451
218.829773	1611.442749	1611.442749	4.248866
219.291031	1550.845337	1642.863647	46.419598
219.752228	1508.202637	1606.954102	-40.435379
220.213379	1550.845337	1663.062744	68.733139
220.674500	1456.582642	1633.886230	-37.951992
221.135574	1505.958374	1595.732300	-30.502596
221.596634	1555.333984	1638.375000	-110.012146
222.057648	1544.112305	1645.108032	-15.606638
222.518600	1505.958374	1597.976685	-28.019629
222.979553	1593.487915	1620.420166	-75.213356
223.440430	1528.401855	1649.596680	31.539263
223.901276	1546.356567	1629.397583	29.058800
224.362076	1557.578369	1660.818481	-28.019629
224.822845	1539.623535	1636.130615	-62.790207
225.283569	1519.424438	1640.619263	11.692924
225.744278	1488.003540	1575.533203	16.655066
226.204910	1591.243652	1600.221069	43.939758
226.665512	1530.646240	1577.777466	-50.369846
227.126114	1611.442749	1615.931396	-8.160073
227.586639	1555.333984	1604.709717	-28.019629
228.047119	1559.822754	1606.954102	-3.196131
228.507568	1517.180054	1656.329712	56.337803
228.967972	1595.732300	1663.062744	-47.886040
229.428345	1624.908813	1600.221069	6.730368
229.888687	1591.243652	1604.709717	-35.468845
230.348984	1521.668823	1613.687134	-32.985664
230.809219	1604.709717	1633.886230	29.058800
231.269440	1575.533203	1654.085449	-35.468845
231.729614	1586.754883	1678.773193	-32.985664
232.189758	1602.465332	1665.307129	-23.054144
232.649841	1517.180054	1593.487915	-75.213356
233.109894	1571.044434	1636.130615	36.499744
233.569901	1519.424438	1575.533203	34.019489
234.029892	1562.067017	1642.863647	26.578234
234.489822	1571.044434	1611.442749	-35.468845
234.949707	1591.243652	1620.420166	-37.951992
235.409561	1559.822754	1584.510620	-8.160073
235.869385	1591.243652	1526.157471	-67.759201
236.329163	1606.954102	1568.800171	-85.153755
236.788895	1588.999268	1602.465332	-57.821774
237.248581	1566.555786	1582.266235	9.211631
237.708237	1568.800171	1627.153198	-75.213356
238.167847	1586.754883	1564.311401	-3.196131
238.627441	1537.379272	1627.153198	-23.054144
239.086960	1492.492188	1627.153198	-72.728485
239.546463	1588.999268	1633.886230	38.979897
240.005920	1595.732300	1698.972412	-75.213356
240.465332	1546.356567	1640.619263	-67.759201
240.924698	1532.890503	1611.442749	-75.213356
241.384033	1582.266235	1588.999268	-45.402336
241.843338	1609.198364	1571.044434	-8.160073
242.302597	1557.578369	1683.261963	-55.337650
242.761810	1523.913086	1597.976685	1.767260
243.220993	1517.180054	1654.085449	24.097698
243.680115	1595.732300	1624.908813	-80.183273
244.139221	1609.198364	1622.664551	31.539263
244.598282	1586.754883	1654.085449	-52.853626
245.057297	1566.555786	1595.732300	-15.606638
245.516266	1604.709717	1631.641846	31.539263
245.975189	1492.492188	1618.175781	-30.502596
246.434082	1586.754883	1627.153198	-3.196131
246.892944	1593.487915	1640.619263	-60.306007
247.351761	1544.112305	1615.931396	-13.124300
247.810516	1512.691406	1631.641846	-37.951992
248.269272	1555.333984	1611.442749	-8.160073
248.727951	1521.668823	1555.333984	71.211952
249.186600	1555.333984	1555.333984	16.655066
249.645218	1573.288818	1618.175781	-37.951992
250.103790	1600.221069	1586.754883	-42.918873
250.562317	1571.044434	1638.375000	-40.435379
251.020813	1600.221069	1649.596680	-8.160073
251.479279	1550.845337	1611.442749	-92.610138
251.937668	1521.668823	1647.352295	-110.012146
252.396057	1564.311401	1584.510620	4.248866
252.854385	1602.465332	1636.130615	38.979897
253.312683	1553.089722	1618.175781	24.097698
253.770920	1582.266235	1631.641846	-42.918873
254.229126	1559.822754	1553.089722	-23.054144
254.687302	1559.822754	1654.085449	29.058800
255.145432	1521.668823	1611.442749	-28.019629
255.603500	1474.537476	1564.311401	-77.698326
256.061584	1615.931396	1606.954102	26.578234
256.519592	1571.044434	1620.420166	-40.435379
256.977570	1597.976685	1651.841064	6.730368
257.435455	1512.691406	1539.623535	-0.714451
257.893372	1562.067017	1595.732300	-70.243721
258.351196	1568.800171	1633.886230	58.816990
258.808990	1566.555786	1566.555786	4.248866
259.266754	1588.999268	1588.999268	-28.019629
259.724487	1503.713989	1613.687134	-37.951992
260.182190	1541.867920	1611.442749	9.211631
260.639832	1564.311401	1689.994995	-18.089081
261.097443	1568.800171	1681.017578	-35.468845
261.554993	1642.863647	1674.284546	-55.337650
262.012512	1575.533203	1604.709717	6.730368
262.469971	1568.800171	1595.732300	24.097698
262.927429	1588.999268	1665.307129	-13.124300
263.384827	1548.600952	1615.931396	-5.678050
263.842194	1627.153198	1602.465332	-18.089081
264.299530	1566.555786	1571.044434	-52.853626
264.756805	1577.777466	1600.221069	-30.502596
265.214050	1562.067017	1602.465332	-52.853626
265.671234	1588.999268	1622.664551	53.858368
266.128387	1517.180054	1571.044434	-28.019629
266.585510	1631.641846	1645.108032	-5.678050
267.042572	1571.044434	1687.750610	-15.606638
267.499573	1582.266235	1595.732300	-52.853626
267.956604	1609.198364	1548.600952	-67.759201
268.413574	1557.578369	1615.931396	-97.581543
268.870483	1615.931396	1656.329712	-18.089081
269.327362	1544.112305	1591.243652	-30.502596
269.784180	1559.822754	1624.908813	-65.274651
270.240936	1532.890503	1548.600952	24.097698
270.697693	1568.800171	1602.465332	9.211631
271.154419	1627.153198	1640.619263	26.578234
271.611053	1586.754883	1611.442749	-13.124300
272.067688	1523.913086	1663.062744	-18.089081
272.524292	1535.134888	1557.578369	-95.095856
272.980835	1613.687134	1651.841064	4.248866
273.437347	1523.913086	1557.578369	-50.369846
273.893799	1555.333984	1568.800171	-52.853626
274.350250	1532.890503	1548.600952	29.058800
274.806610	1575.533203	1575.533203	-60.306007
275.262939	1564.311401	1571.044434	-75.213356
275.719238	1532.890503	1606.954102	1.767260
276.175507	1573.288818	1609.198364	-70.243721
276.631714	1638.375000	1642.863647	-25.536900
277.087891	1544.112305	1600.221069	-42.918873
277.544067	1582.266235	1611.442749	21.616924
278.000122	1566.555786	1613.687134	51.378838
278.456177	1566.555786	1624.908813	-92.610138
278.912201	1577.777466	1622.664551	-32.985664
279.368164	1544.112305	1611.442749	-57.821774
279.824097	1580.021851	1674.284546	19.136045
280.279968	1539.623535	1685.506226	-0.714451
280.735840	1566.555786	1660.818481	-15.606638
281.191620	1526.157471	1638.375000	105.904045
281.647400	1550.845337	1660.818481	-18.089081
282.103149	1508.202637	1606.954102	-100.067482
282.558838	1532.890503	1629.397583	-100.067482
283.014465	1505.958374	1593.487915	-60.306007
283.470062	1544.112305	1640.619263	-97.581543
283.925629	1667.551514	1696.728027	-13.124300
284.381134	1503.713989	1588.999268	-114.985054
284.836639	1564.311401	1638.375000	-144.831924
285.292053	1553.089722	1633.886230	24.097698
285.747467	1559.822754	1651.841064	-3.196131
286.202820	1618.175781	1606.954102	9.211631
286.658142	1559.822754	1573.288818	-3.196131
287.113434	1595.732300	1575.533203	1.767260
287.568634	1604.709717	1604.709717	19.136045
288.023804	1546.356567	1582.266235	21.616924
288.478973	1530.646240	1669.795776	16.655066
288.934113	1609.198364	1647.352295	-40.435379
289.389130	1557.578369	1571.044434	29.058800
289.844208	1528.401855	1654.085449	19.136045
290.299164	1555.333984	1546.356567	-40.435379
290.754089	1593.487915	1627.153198	58.816990
291.208984	1600.221069	1613.687134	-37.951992
291.663879	1602.465332	1602.465332	61.296215
292.118683	1553.089722	1613.687134	-82.668457
292.573456	1553.089722	1577.777466	-3.196131
293.028198	1526.157471	1613.687134	-62.790207
293.482849	1505.958374	1685.506226	-47.886040
293.937561	1501.469604	1633.886230	-60.306007
294.392151	1501.469604	1586.754883	-60.306007
294.846741	1499.225342	1620.420166	-25.536900
295.301239	1539.623535	1580.021851	-8.160073
295.755737	1557.578369	1633.886230	-45.402336
296.210175	1535.134888	1642.863647	53.858368
296.664581	1566.555786	1649.596680	133.148132
297.118958	1573.288818	1564.311401	51.378838
297.573242	1499.225342	1663.062744	-28.019629
298.027557	1532.890503	1604.709717	-25.536900
298.481812	1568.800171	1582.266235	68.733139
298.935974	1571.044434	1553.089722	-23.054144
299.390137	1517.180054	1577.777466	-20.571491
299.844238	1571.044434	1577.777466	73.690659
300.298340	1624.908813	1591.243652	-35.468845
300.752350	1562.067017	1580.021851	29.058800
301.206360	1553.089722	1631.641846	-55.337650
301.660278	1582.266235	1544.112305	24.097698
302.114197	1575.533203	1582.266235	11.692924
302.568054	1586.754883	1559.822754	-25.536900
303.021881	1548.600952	1658.574097	-3.196131
303.475677	1568.800171	1624.908813	-25.536900
303.929413	1559.822754	1638.375000	-3.196131
304.383118	1553.089722	1663.062744	-5.678050
304.836761	1530.646240	1622.664551	36.499744
305.290375	1649.596680	1638.375000	-75.213356
305.743958	1571.044434	1544.112305	-13.124300
306.197510	1606.954102	1586.754883	31.539263
306.650970	1656.329712	1595.732300	-52.853626
307.104431	1622.664551	1651.841064	6.730368
307.557800	1568.800171	1588.999268	-50.369846
308.011169	1541.867920	1577.777466	4.248866
308.464508	1557.578369	1627.153198	-25.536900
308.917755	1586.754883	1615.931396	-110.012146
309.371063	1584.510620	1613.687134	-87.639015
309.824219	1631.641846	1654.085449	-42.918873
310.277374	1584.510620	1606.954102	1.767260
310.730499	1591.243652	1642.863647	-65.274651
311.183563	1548.600952	1640.619263	34.019489
311.636597	1562.067017	1564.311401	-52.853626
312.089569	1573.288818	1627.153198	-77.698326
312.542511	1548.600952	1620.420166	-40.435379
312.995422	1597.976685	1654.085449	-102.553520
313.448273	1550.845337	1645.108032	-65.274651
313.901093	1566.555786	1591.243652	-5.678050
314.353882	1544.112305	1548.600952	24.097698
314.806580	1546.356567	1573.288818	-40.435379
315.259308	1537.379272	1588.999268	-32.985664
315.711975	1550.845337	1550.845337	-3.196131
316.164581	1586.754883	1602.465332	19.136045
316.617126	1593.487915	1705.705444	-110.012146
317.069672	1577.777466	1636.130615	26.578234
317.522156	1526.157471	1672.040161	-47.886040
317.974579	1584.510620	1647.352295	14.174114
318.427002	1559.822754	1642.863647	24.097698
318.879333	1503.713989	1609.198364	-32.985664
319.331665	1597.976685	1613.687134	9.211631
319.783936	1467.804443	1696.728027	1.767260
320.236176	1595.732300	1631.641846	-50.369846
320.688354	1613.687134	1721.415894	-52.853626
321.140503	1566.555786	1591.243652	9.211631
321.592651	1618.175781	1571.044434	-45.402336
322.044647	1613.687134	1687.750610	-40.435379
322.496704	1582.266235	1651.841064	34.019489
322.948639	1476.781860	1669.795776	-60.306007
323.400604	1606.954102	1689.994995	-75.213356
323.852509	1562.067017	1618.175781	-28.019629
324.304352	1568.800171	1638.375000	-52.853626
324.756165	1532.890503	1676.528931	34.019489
325.207916	1557.578369	1723.660156	-25.536900
325.659668	1557.578369	1665.307129	4.248866
326.111328	1559.822754	1615.931396	-20.571491
326.562988	1490.247925	1624.908813	-60.306007
327.014557	1584.510620	1611.442749	-18.089081
327.466156	1586.754883	1721.415894	-85.153755
327.917664	1586.754883	1606.954102	-30.502596
328.369110	1613.687134	1600.221069	-72.728485
328.820557	1485.759155	1613.687134	36.499744
329.271942	1591.243652	1705.705444	31.539263
329.723297	1577.777466	1595.732300	-95.095856
330.174561	1555.333984	1685.506226	-40.435379
330.625854	1566.555786	1674.284546	-45.402336
331.077026	1577.777466	1618.175781	-15.606638
331.528229	1580.021851	1692.239380	-47.886040
331.979370	1559.822754	1703.461060	-67.759201
332.430450	1580.021851	1714.682861	-8.160073
332.881500	1555.333984	1703.461060	123.242592
333.332489	1575.533203	1721.415894	-32.985664
333.783478	1559.822754	1672.040161	-13.124300
334.234406	1555.333984	1716.927124	-10.642067
334.685303	1548.600952	1692.239380	-3.196131
335.136078	1647.352295	1627.153198	21.616924
335.586914	1523.913086	1739.370605	73.690659
336.037659	1557.578369	1725.904541	-10.642067
336.488342	1532.890503	1757.325439	24.097698
336.939026	1613.687134	1826.900269	-67.759201
337.389648	1483.514893	1732.637573	26.578234
337.840240	1539.623535	1698.972412	-3.196131
338.290771	1577.777466	1808.945435	-20.571491
338.741272	1546.356567	1829.144653	19.136045
339.191681	1483.514893	1725.904541	-30.502596
339.642120	1535.134888	1838.122070	-62.790207
340.092468	1541.867920	1797.723755	9.211631
340.542816	1550.845337	1683.261963	-13.124300
340.993103	1548.600952	1770.791504	-10.642067
341.443329	1618.175781	1786.501953	41.459812
341.893555	1624.908813	1804.456787	-0.714451
342.343689	1609.198364	1811.189819	-47.886040
342.793793	1532.890503	1768.547241	-100.067482
343.243866	1615.931396	1829.144653	-28.019629
343.693878	1604.709717	1826.900269	-8.160073
344.143890	1526.157471	1849.343750	-35.468845
344.593842	1611.442749	1831.389038	-20.571491
345.043732	1580.021851	1900.963867	-100.067482
345.493591	1593.487915	1871.787231	-32.985664
345.943359	1593.487915	1820.167236	-10.642067
346.393158	1582.266235	1891.986450	-28.019629
346.842896	1470.048706	1826.900269	58.816990
347.292542	1580.021851	1894.230713	6.730368
347.742218	1566.555786	1880.764648	-52.853626
348.191803	1631.641846	1927.895996	-40.435379
348.641357	1541.867920	1853.832520	-5.678050
349.090881	1517.180054	1903.208130	-67.759201
349.540314	1577.777466	1871.787231	14.174114
349.989777	1580.021851	1999.715210	-35.468845
350.439148	1562.067017	1840.366333	53.858368
350.888489	1526.157471	1963.805542	-25.536900
351.337799	1597.976685	2049.090820	-72.728485
351.787048	1620.420166	2024.403076	-70.243721
352.236267	1573.288818	1961.561279	26.578234
352.685425	1519.424438	2022.158691	24.097698
353.134552	1519.424438	2026.647339	-32.985664
353.583649	1593.487915	2073.778809	-57.821774
354.032684	1528.401855	2040.113403	38.979897
354.481659	1555.333984	1984.004761	48.899338
354.930634	1575.533203	2098.466553	14.174114
355.379517	1508.202637	2062.556885	-107.525787
355.828430	1588.999268	2125.398682	-45.402336
356.277222	1627.153198	2111.932617	6.730368
356.726013	1595.732300	2136.620361	-30.502596
357.174774	1514.935791	2154.575195	-65.274651
357.623444	1523.913086	2102.955322	-10.642067
358.072113	1582.266235	2102.955322	-57.821774
358.520721	1573.288818	2197.218018	-77.698326
358.969299	1562.067017	2170.285645	-45.402336
359.417786	1580.021851	2262.303955	63.775337
359.866302	1575.533203	2170.285645	6.730368
360.314697	1582.266235	2168.041260	1.767260
360.763123	1553.089722	2255.571045	4.248866
361.211456	1559.822754	2273.525879	31.539263
361.659760	1573.288818	2109.688232	6.730368
362.108032	1541.867920	2233.127441	24.097698
362.556244	1559.822754	2215.172607	-28.019629
363.004456	1559.822754	2163.552734	14.174114
363.452576	1564.311401	2300.458008	-5.678050
363.900696	1609.198364	2374.521484	-18.089081
364.348663	1577.777466	2239.860596	-25.536900
364.796722	1566.555786	2273.525879	24.097698
365.244690	1519.424438	2242.104980	-3.196131
365.692596	1602.465332	2374.521484	-5.678050
366.140472	1591.243652	2372.277100	-42.918873
366.588287	1537.379272	2430.630127	-28.019629
367.036102	1651.841064	2482.250244	-35.468845
367.483826	1586.754883	2428.385986	-37.951992
367.931549	1537.379272	2473.272949	-3.196131
368.379181	1510.447021	2374.521484	-15.606638
368.826843	1595.732300	2462.051025	21.616924
369.274384	1595.732300	2392.476318	1.767260
369.721924	1517.180054	2423.897217	-15.606638
370.169403	1573.288818	2475.517334	-18.089081
370.616821	1564.311401	2549.580811	1.767260
371.064270	1508.202637	2524.892822	41.459812
371.511566	1548.600952	2545.092041	-20.571491
371.958923	1557.578369	2515.915527	11.692924
372.406158	1559.822754	2581.001709	-28.019629
372.853424	1537.379272	2560.802490	-15.606638
373.300568	1586.754883	2637.110352	11.692924
373.747711	1566.555786	2585.490234	21.616924
374.194794	1479.026123	2504.693848	36.499744
374.641846	1541.867920	2639.354736	4.248866
375.088898	1584.510620	2614.666748	-18.089081
375.535828	1602.465332	2616.911133	-52.853626
375.982758	1559.822754	2650.576416	56.337803
376.429596	1564.311401	2708.929443	-42.918873
376.876465	1523.913086	2650.576416	-80.183273
377.323242	1627.153198	2681.997314	4.248866
377.769989	1600.221069	2735.861816	-50.369846
378.216675	1566.555786	2798.703613	-10.642067
378.663330	1496.980957	2767.282715	-42.918873
379.109985	1571.044434	2735.861816	-32.985664
379.556519	1535.134888	2823.391357	-67.759201
380.003052	1658.574097	2782.993164	9.211631
380.449524	1588.999268	2854.812256	-0.714451
380.895996	1593.487915	2827.880127	29.058800
381.342377	1606.954102	2875.011475	-92.610138
381.788727	1562.067017	2762.793945	-25.536900
382.235046	1535.134888	2915.409668	-28.019629
382.681274	1541.867920	2926.631348	21.616924
383.127533	1586.754883	2951.319336	1.767260
383.573669	1562.067017	2949.074951	-10.642067
384.019836	1588.999268	2951.319336	-20.571491
384.465912	1564.311401	2933.364502	41.459812
384.911957	1575.533203	3101.690674	-20.571491
385.357971	1544.112305	2928.875732	-20.571491
385.803925	1555.333984	3133.111572	16.655066
386.249847	1600.221069	2973.762695	-5.678050
386.695679	1571.044434	3160.043701	-10.642067
387.141541	1539.623535	3099.446289	-87.639015
387.587311	1593.487915	3079.247070	1.767260
388.033051	1548.600952	3222.885498	56.337803
388.478729	1575.533203	3164.532471	-67.759201
388.924408	1620.420166	3180.242920	51.378838
389.369995	1496.980957	3319.392578	-15.606638
389.815552	1553.089722	3160.043701	-18.089081
390.261078	1559.822754	3314.903809	29.058800
390.706543	1508.202637	3207.175049	-18.089081
391.152008	1501.469604	3332.858643	-13.124300
391.597351	1633.886230	3341.835938	-3.196131
392.042725	1606.954102	3209.419434	-105.039536
392.487976	1539.623535	3373.256836	76.169128
392.933289	1557.578369	3438.343018	6.730368
393.378479	1544.112305	3335.103027	-30.502596
393.823639	1582.266235	3366.523926	-10.642067
394.268768	1535.134888	3344.080322	53.858368
394.713837	1624.908813	3379.989990	-62.790207
395.158905	1535.134888	3501.184814	6.730368
395.603851	1548.600952	3368.768311	-55.337650
396.048798	1577.777466	3543.827393	-57.821774
396.493683	1571.044434	3510.162109	-23.054144
396.938568	1602.465332	3469.763916	-10.642067
397.383392	1548.600952	3460.786621	-42.918873
397.828156	1600.221069	3492.207520	4.248866
398.272888	1609.198364	3537.094482	-8.160073
398.717560	1584.510620	3676.244141	-10.642067
399.162201	1544.112305	3537.094482	1.767260
399.606781	1548.600952	3671.755371	48.899338
400.051361	1580.021851	3691.954590	-18.089081
400.495819	1559.822754	3613.402344	-45.402336
400.940308	1588.999268	3739.085938	-0.714451
401.384705	1629.397583	3759.284912	-35.468845
401.829102	1582.266235	3754.796387	4.248866
402.273438	1591.243652	3837.837158	29.058800
402.717682	1597.976685	3833.348389	4.248866
403.161926	1562.067017	3943.321533	36.499744
403.606110	1654.085449	3896.190186	4.248866
404.050293	1541.867920	3849.058838	34.019489
404.494385	1546.356567	3844.570313	-32.985664
404.938446	1514.935791	3815.393799	-35.468845
405.382477	1573.288818	3833.348389	-70.243721
405.826447	1535.134888	3945.565918	-10.642067
406.270386	1528.401855	4012.896484	-13.124300
406.714233	1555.333984	4062.272217	-37.951992
407.158081	1559.822754	4024.118164	14.174114
407.601868	1566.555786	4019.629395	34.019489
408.045624	1559.822754	4048.806152	34.019489
408.489319	1577.777466	4046.561768	41.459812
408.933014	1553.089722	4172.245117	31.539263
409.376617	1584.510620	4021.873779	9.211631
409.820190	1629.397583	4219.376465	-52.853626
410.263702	1539.623535	4264.263672	-10.642067
410.707184	1580.021851	4327.105469	-10.642067
411.150635	1553.089722	4349.548828	-23.054144
411.594025	1636.130615	4345.060059	78.647636
412.037384	1541.867920	4419.123535	4.248866
412.480682	1422.917358	4423.612305	16.655066
412.923981	1566.555786	4374.236816	38.979897
413.367126	1642.863647	4239.575684	-10.642067
413.810333	1580.021851	4387.702637	105.904045
414.253479	1586.754883	4392.191406	145.527664
414.696533	1562.067017	4538.074219	9.211631
415.139587	1526.157471	4560.517578	31.539263
415.582581	1519.424438	4513.386230	152.954208
416.025543	1575.533203	4558.273438	140.576187
416.468414	1544.112305	4809.640625	133.148132
416.911285	1555.333984	4674.979492	103.426659
417.354065	1611.442749	4589.694336	91.038498
417.796875	1580.021851	4668.246582	135.624161
418.239594	1575.533203	4800.663086	212.334167
418.682281	1593.487915	4652.536133	165.329849
419.124908	1615.931396	4764.753418	170.279327
419.567505	1588.999268	4740.065430	209.861237
420.010071	1577.777466	4912.880371	182.651443
420.452545	1519.424438	4834.328125	207.388092
420.895020	1526.157471	4912.880371	175.228531
421.337372	1591.243652	4982.455078	199.968155
421.779785	1573.288818	5105.894531	274.127502
422.222107	1580.021851	4953.278809	276.597992
422.664368	1514.935791	5067.740723	308.704956
423.106628	1541.867920	5101.405762	375.336365
423.548798	1537.379272	5150.781738	286.478821
423.990967	1557.578369	5283.198242	412.323669
424.433044	1548.600952	5325.840820	424.647919
424.875092	1584.510620	5146.292969	429.577057
425.317078	1557.578369	5206.890137	449.289459
425.759064	1519.424438	5303.397461	564.979736
426.200989	1575.533203	5155.270020	564.979736
426.642853	1571.044434	5341.551270	501.006226
427.084686	1557.578369	5449.279785	584.651245
427.526459	1584.510620	5426.836426	572.357239
427.968201	1597.976685	5390.926758	596.943054
428.409912	1521.668823	5375.216309	675.556885
428.851563	1548.600952	5646.782715	771.243530
429.293121	1568.800171	5458.257324	643.631042
429.734711	1530.646240	5404.393066	808.010437
430.176239	1620.420166	5536.809570	896.171509
430.617706	1539.623535	5622.094727	898.618896
431.059113	1566.555786	5815.108887	974.443848
431.500488	1508.202637	5767.977539	971.999084
431.941833	1530.646240	5794.909668	1008.660889
432.383087	1564.311401	5799.398438	1023.320251
432.824341	1505.958374	5756.755859	1191.691040
433.265533	1602.465332	5960.991699	1284.252808
433.706726	1526.157471	5799.398438	1269.645264
434.147827	1550.845337	5866.729004	1388.856445
434.588867	1602.465332	5788.176758	1444.748657
435.029877	1624.908813	6044.032715	1684.872070
435.470825	1602.465332	5911.615723	1469.037109
435.911804	1546.356567	5996.901367	1689.715332
436.352661	1627.153198	6106.874512	1830.051392
436.793518	1568.800171	6093.408203	1680.028198
437.234283	1557.578369	6351.508301	2030.462891
437.675049	1532.890503	6165.227539	2078.683594
438.115723	1593.487915	6142.783691	2064.220215
438.556396	1564.311401	6277.444824	2244.838135
438.997040	1562.067017	6463.725586	2336.208740
439.437561	1564.311401	6555.744141	2506.677002
439.878113	1553.089722	6510.856934	2585.799805
440.318573	1604.709717	6465.970215	2662.459961
440.759033	1606.954102	6582.676270	2839.495605
441.199341	1577.777466	6661.228516	3118.735107
441.639709	1555.333984	6771.201660	3118.735107
442.079956	1557.578369	6775.690430	3344.884766
442.520264	1548.600952	6950.749512	3494.577881
442.960510	1584.510620	6993.392090	3489.829346
443.400604	1546.356567	6874.441895	3677.239990
443.840759	1580.021851	6977.681641	3937.634521
444.280762	1604.709717	7280.668945	4277.562012
444.720825	1505.958374	7013.591309	4341.180176
445.160767	1530.646240	7267.202637	4599.993164
445.600739	1514.935791	7141.519043	4696.308105
446.040558	1523.913086	7235.781738	4989.449219
446.480438	1510.447021	7143.763672	5108.837891
446.920258	1566.555786	7361.465332	5491.932617
447.359955	1609.198364	7433.284668	5575.861328
447.799713	1568.800171	7686.895996	6154.778809
448.239319	1564.311401	7610.588379	6122.301758
448.678955	1559.822754	7630.787598	6395.768555
449.118500	1546.356567	7794.625000	6742.531738
449.558014	1604.709717	7664.452637	6878.664551
449.997498	1530.646240	7796.869141	7240.207520
450.436951	1580.021851	7774.425781	7375.811523
450.876343	1548.600952	7971.928711	7630.546875
451.315674	1532.890503	7998.860840	7999.148438
451.754974	1573.288818	7976.416992	8060.863281
452.194183	1537.379272	8003.349609	8245.835938
452.633392	1602.465332	8194.119141	8430.552734
453.072510	1519.424438	8102.100586	8710.569336
453.511688	1519.424438	8337.757813	8742.404297
453.950684	1606.954102	8380.400391	8862.856445
454.389740	1568.800171	8227.784180	8756.045898
454.828735	1550.845337	8277.160156	9164.662109
455.267639	1636.130615	8313.069336	8937.801758
455.706543	1557.578369	8355.711914	8940.072266
456.145325	1530.646240	8604.834961	8894.656250
456.584137	1620.420166	8535.259766	8867.399414
457.022858	1566.555786	8497.106445	8756.045898
457.461578	1573.288818	8425.287109	8637.774414
457.900208	1582.266235	8708.075195	8539.896484
458.338867	1537.379272	8622.790039	8113.412598
458.777405	1595.732300	8705.831055	8115.696777
459.215912	1586.754883	8681.142578	7925.967773
459.654388	1517.180054	9055.949219	7680.975586
460.092773	1615.931396	8867.423828	7614.496582
460.531189	1526.157471	9015.550781	7499.798340
460.969513	1523.913086	9226.519531	7265.500977
461.407806	1577.777466	9035.750000	7037.685059
461.846008	1622.664551	9251.208008	6899.417480
462.284241	1557.578369	9426.266602	6627.050781
462.722351	1575.533203	9208.564453	6721.753418
463.160461	1622.664551	9320.782227	6363.354980
463.598541	1546.356567	9783.118164	6342.512695
464.036530	1530.646240	9911.045898	6323.983887
464.474518	1541.867920	9823.516602	6106.060547
464.912384	1591.243652	10173.634766	6198.840820
465.350281	1535.134888	10005.308594	5971.403809
465.788086	1584.510620	10245.454102	5917.964844
466.225891	1571.044434	10283.608398	6036.429199
466.663605	1510.447021	10676.369141	5920.288574
467.101318	1559.822754	10552.929688	5848.226074
467.539001	1604.709717	10662.903320	5899.371582
467.976563	1519.424438	11116.261719	5948.172852
468.414124	1541.867920	11188.081055	5792.406250
468.851593	1514.935791	11235.211914	5855.201660
469.289063	1535.134888	11803.032227	5829.622559
469.726440	1535.134888	11809.765625	5897.047363
470.163849	1575.533203	12002.779297	5857.526855
470.601135	1553.089722	12247.414063	5899.371582
471.038422	1571.044434	12510.002930	5717.940430
471.475677	1555.333984	12613.243164	5866.827148
471.912811	1539.623535	12570.600586	5815.667480
472.350006	1618.175781	13026.203125	5838.924805
472.787048	1555.333984	13295.525391	5864.501953
473.224121	1584.510620	13409.986328	5608.484375
473.661072	1584.510620	13677.064453	5799.384766
474.098053	1577.777466	13787.037109	5776.120605
474.534943	1559.822754	13899.254883	5578.191895
474.971802	1667.551514	14229.173828	5690.003418
475.408630	1550.845337	14920.433594	5736.561035
475.845367	1618.175781	14844.125977	5648.086426
476.282104	1600.221069	15288.506836	5624.792480
476.718750	1593.487915	15385.013672	5400.942871
477.155426	1575.533203	15797.974609	5627.122070
477.591949	1580.021851	15923.658203	5484.936035
478.028503	1546.356567	16224.400391	5337.909668
478.464966	1615.931396	16592.474609	5421.946777
478.901428	1564.311401	16650.826172	5613.144043
479.337860	1537.379272	17270.267578	5571.200195
479.774170	1586.754883	17427.371094	5627.122070
480.210510	1575.533203	17476.748047	5552.553711
480.646698	1627.153198	18111.898438	5696.988281
481.082947	1546.356567	18277.980469	5722.595703
481.519073	1584.510620	18688.695313	5848.226074
481.955200	1517.180054	18787.447266	5617.803711
482.391266	1597.976685	19440.552734	5797.059082
482.827301	1584.510620	19685.187500	5824.971191
483.263306	1571.044434	19994.908203	5876.126465
483.699188	1573.288818	20163.234375	6020.175781
484.135101	1573.288818	20253.007813	6050.358887
484.570923	1604.709717	20973.443359	6136.221191
485.006744	1562.067017	20818.583984	6284.601074
485.442413	1604.709717	20796.140625	6393.453613
485.878174	1535.134888	21305.607422	6479.079590
486.313782	1584.510620	21534.531250	6518.401367
486.749390	1595.732300	22012.578125	6714.826172
487.184998	1550.845337	22111.328125	6818.691406
487.620453	1604.709717	22275.166016	6869.439941
488.055939	1555.333984	22634.261719	7058.412598
488.491333	1577.777466	22627.529297	7150.492676
488.926727	1566.555786	22719.546875	7449.300293
489.362030	1591.243652	22849.718750	7449.300293
489.797302	1555.333984	23195.349609	7591.565430
490.232513	1575.533203	23489.359375	7561.748047
490.667755	1510.447021	23523.023438	7797.804199
491.102905	1609.198364	23698.083984	7903.090820
491.537964	1597.976685	24108.798828	8106.559082
491.973022	1624.908813	24559.914063	8044.865723
492.407990	1541.867920	24292.835938	8428.274414
492.842957	1620.420166	24575.625000	8503.458008
493.277832	1593.487915	24903.298828	8624.122070
493.712738	1548.600952	25302.792969	8767.412109
494.147491	1573.288818	25581.091797	8867.399414
494.582275	1544.112305	25195.064453	9160.128906
495.017029	1535.134888	25724.730469	9126.122070
495.451660	1577.777466	25863.880859	9246.242188
495.886292	1557.578369	26092.804688	9572.090820
496.320831	1573.288818	25861.636719	9800.195313
496.755402	1510.447021	26366.615234	9906.220703
497.189850	1557.578369	26788.552734	10280.084961
497.624298	1539.623535	26916.480469	10334.059570
498.058655	1564.311401	26932.191406	10527.312500
498.493042	1496.980957	26696.535156	10780.870117
498.927368	1544.112305	27197.023438	10987.001953
499.361572	1586.754883	27217.222656	11248.764648
499.795807	1580.021851	27455.125000	11398.475586
500.229919	1586.754883	27847.884766	11559.207031
500.664063	1496.980957	27785.042969	11715.328125
501.098083	1654.085449	28465.082031	12000.442383
501.532104	1593.487915	28337.154297	12427.267578
501.966064	1550.845337	28680.539063	12507.188477
502.399994	1530.646240	28471.814453	12578.201172
502.833893	1591.243652	28586.275391	13039.159180
503.267700	1505.958374	28815.199219	13041.373047
503.701477	1499.225342	29443.617188	13457.126953
504.135193	1555.333984	29567.056641	13644.842773
504.568909	1586.754883	29881.265625	13885.341797
505.002502	1548.600952	29782.513672	14125.605469
505.436127	1604.709717	29816.179688	14204.909180
505.869629	1591.243652	30224.650391	14484.488281
506.303162	1526.157471	29840.867188	14730.815430
506.736603	1505.958374	30184.253906	14996.713867
507.169983	1510.447021	30749.828125	15119.700195
507.603363	1591.243652	30581.501953	15437.946289
508.036621	1606.954102	30945.087891	15576.134766
508.469940	1588.999268	30924.888672	15505.949219
508.903107	1555.333984	31288.472656	15944.411133
509.336304	1571.044434	31286.228516	16314.588867
509.769379	1604.709717	31802.429688	16143.769531
510.202484	1604.709717	31723.876953	16811.435547
510.635529	1615.931396	32011.152344	16835.503906
511.068481	1636.130615	32226.611328	17073.951172
511.501434	1557.578369	32201.923828	17111.134766
511.934265	1580.021851	32491.443359	17391.060547
512.367126	1629.397583	32805.652344	17461.035156
512.799927	1584.510620	32435.335938	17788.986328
513.232605	1582.266235	32226.611328	17867.687500
513.665344	1593.487915	32394.937500	18036.015625
514.097961	1571.044434	33252.277344	18578.142578
514.530579	1544.112305	33214.125000	18582.515625
514.963135	1591.243652	33864.984375	19299.669922
515.395691	1611.442749	33557.511719	18938.871094
515.828064	1535.134888	34024.335938	19376.216797
516.260498	1645.108032	33950.269531	19426.521484
516.692871	1584.510620	34181.437500	19636.513672
517.125183	1566.555786	34457.492188	19623.386719
517.557373	1606.954102	34430.562500	19872.810547
517.989624	1584.510620	34942.273438	20041.324219
518.421753	1591.243652	35191.394531	20144.199219
518.853943	1541.867920	35368.699219	20579.953125
519.286072	1537.379272	35523.558594	20761.787109
519.718018	1568.800171	35337.277344	20895.458984
520.150024	1566.555786	35593.132813	20943.679688
520.581909	1553.089722	35384.410156	21327.382813
521.013855	1600.221069	35539.269531	21176.060547
521.445679	1544.112305	35871.433594	21408.544922
521.877502	1550.845337	35875.921875	21480.947266
522.309204	1550.845337	36082.402344	21698.207031
522.740906	1548.600952	36185.644531	21827.736328
523.172546	1494.736572	36001.605469	21884.826172
523.604187	1508.202637	36522.296875	22139.628906
524.035767	1483.514893	36481.898438	22574.886719
524.467224	1609.198364	36237.261719	22247.304688
524.898682	1535.134888	36235.019531	22480.324219
525.330078	1595.732300	36551.472656	22464.933594
525.761475	1571.044434	36746.730469	22568.289063
526.192749	1557.578369	37049.718750	23030.402344
526.624023	1600.221069	37045.230469	22880.710938
527.055237	1555.333984	37040.738281	23034.806641
527.486389	1672.040161	37260.687500	23407.074219
527.917542	1544.112305	37253.953125	23329.951172
528.348572	1550.845337	37328.015625	23078.843750
528.779663	1620.420166	37651.203125	23565.775391
529.210571	1633.886230	37509.808594	23940.730469
529.641541	1611.442749	37146.222656	23691.457031
530.072388	1562.067017	37669.156250	23951.763672
530.503235	1584.510620	37691.601563	23841.443359
530.934082	1609.198364	37925.011719	24066.527344
531.364746	1537.379272	37725.265625	24176.906250
531.795532	1606.954102	37653.445313	23951.763672
532.226135	1557.578369	37904.812500	24523.683594
532.656738	1537.379272	38398.570313	24545.783203
533.087280	1521.668823	38118.027344	24371.244141
533.517822	1557.578369	38515.277344	24987.972656
533.948242	1539.623535	38277.375000	24928.250000
534.378662	1555.333984	38620.761719	25164.972656
534.809082	1588.999268	38712.781250	25149.484375
535.239319	1584.510620	38477.125000	25353.113281
535.669617	1555.333984	38914.773438	25512.541016
536.099792	1613.687134	39085.343750	25678.667969
536.529968	1553.089722	39170.628906	25813.826172
536.960083	1582.266235	39338.953125	25926.855469
537.390137	1591.243652	39092.074219	26046.564453
537.820190	1571.044434	39179.605469	26115.296875
538.250183	1499.225342	39260.402344	26146.341797
538.680115	1514.935791	39390.574219	26359.263672
539.109985	1580.021851	39926.972656	26590.019531
539.539795	1523.913086	39471.371094	26687.677734
539.969543	1548.600952	39514.011719	26634.406250
540.399292	1494.736572	39547.679688	26614.431641
540.828979	1571.044434	40252.402344	27138.431641
541.258606	1530.646240	39848.421875	27393.923828
541.688171	1546.356567	40012.257813	27376.146484
542.117737	1611.442749	39933.707031	27049.587891
542.547302	1571.044434	40169.363281	27473.921875
542.976685	1575.533203	40537.437500	28009.669922
543.406128	1645.108032	40811.246094	28160.894531
543.835388	1548.600952	40481.328125	27909.609375
544.264771	1618.175781	41022.214844	28027.458984
544.693970	1597.976685	40811.246094	28498.996094
545.123230	1503.713989	40777.582031	28510.119141
545.552307	1586.754883	40838.179688	28492.322266
545.981506	1595.732300	40681.074219	28579.087891
546.410583	1604.709717	41675.320313	29035.240234
546.839539	1615.931396	41361.113281	29021.886719
547.268555	1627.153198	41163.609375	29090.875000
547.697449	1622.664551	41854.867188	29662.873047
548.126282	1618.175781	41693.277344	29923.292969
548.555054	1577.777466	41574.324219	30043.486328
548.983887	1535.134888	41242.160156	29783.066406
549.412598	1490.247925	41931.175781	30096.906250
549.841309	1606.954102	42056.859375	30386.248047
550.269958	1577.777466	41906.488281	30771.259766
550.698486	1582.266235	42389.023438	30613.255859
551.127075	1539.623535	42299.250000	31127.271484
551.555481	1492.492188	42424.933594	31214.039063
551.983948	1557.578369	42898.492188	31178.441406
552.412292	1586.754883	42557.351563	31198.464844
552.840698	1544.112305	42871.558594	31556.601563
553.268860	1508.202637	42721.187500	32021.343750
553.697205	1559.822754	42705.476563	31925.746094
554.125366	1606.954102	43378.781250	32176.953125
554.553467	1528.401855	43751.343750	31985.775391
554.981628	1568.800171	43320.429688	32539.195313
555.409607	1586.754883	43987.000000	33061.183594
555.837646	1550.845337	43989.246094	33110.035156
556.265564	1562.067017	44114.929688	33198.843750
556.693481	1571.044434	44384.250000	33494.066406
557.121338	1591.243652	44458.312500	34443.375000
557.549133	1606.954102	44985.734375	34206.148438
557.976929	1546.356567	45120.398438	34811.292969
558.404602	1559.822754	45580.488281	34811.292969
558.832275	1476.781860	45650.062500	35431.605469
559.259888	1553.089722	45450.316406	35190.164063
559.687439	1568.800171	46036.089844	35613.218750
560.114929	1546.356567	45919.386719	36313.019531
560.542419	1577.777466	46038.335938	36239.941406
560.969788	1588.999268	46184.218750	36634.160156
561.397156	1582.266235	46374.988281	36862.320313
561.824524	1588.999268	46500.671875	36868.964844
562.251770	1588.999268	46464.761719	37099.394531
562.679016	1584.510620	46579.222656	37263.398438
563.106140	1640.619263	46662.265625	37893.292969
563.533264	1620.420166	46408.652344	37948.789063
563.960327	1568.800171	46475.984375	37669.175781
564.387329	1472.293091	46417.632813	37955.445313
564.814331	1521.668823	46366.011719	38022.050781
565.241272	1575.533203	46253.792969	38022.050781
565.668213	1465.560059	46552.292969	38464.253906
566.094971	1566.555786	46655.531250	38497.613281
566.521790	1618.175781	46298.679688	37968.765625
566.948425	1595.732300	45874.500000	38422.003906
567.375183	1624.908813	46045.070313	38364.199219
567.801819	1492.492188	45690.460938	38462.035156
568.228394	1597.976685	46130.355469	38974.125000
568.654846	1562.067017	45789.214844	38631.113281
569.081421	1602.465332	45905.917969	38622.207031
569.507874	1523.913086	45710.660156	39099.007813
569.934265	1584.510620	45807.167969	38889.429688
570.360596	1548.600952	45681.484375	38998.648438
570.786865	1521.668823	45766.769531	38818.136719
571.213074	1588.999268	45501.937500	38798.089844
571.639282	1568.800171	45241.593750	39029.867188
572.065430	1584.510620	45477.250000	39143.628906
572.491516	1548.600952	45522.136719	39257.468750
572.917603	1514.935791	45501.937500	39689.035156
573.343567	1571.044434	45573.753906	39563.683594
573.769531	1595.732300	45322.386719	39501.046875
574.195435	1519.424438	45131.617188	39646.488281
574.621277	1508.202637	45486.226563	39646.488281
575.047119	1584.510620	45138.351563	39924.390625
575.472839	1510.447021	45423.382813	39738.308594
575.898560	1591.243652	45524.378906	39794.332031
576.324158	1548.600952	45353.808594	39653.207031
576.749817	1568.800171	44842.097656	39586.054688
577.175293	1615.931396	45506.425781	39577.105469
577.600830	1530.646240	45124.886719	39697.992188
578.026306	1539.623535	45044.089844	40173.683594
578.451721	1613.687134	45405.429688	40448.332031
578.877136	1505.958374	45039.601563	40529.515625
579.302429	1539.623535	45055.312500	40214.160156
579.727661	1575.533203	45237.101563	40157.949219
580.152832	1550.845337	45111.417969	40707.906250
580.578064	1602.465332	45252.812500	40515.980469
581.003113	1539.623535	44869.031250	40588.187500
581.428223	1559.822754	44871.273438	40211.914063
581.853271	1582.266235	45201.195313	40466.367188
582.278198	1566.555786	44779.257813	40746.335938
582.703125	1503.713989	44893.718750	40405.511719
583.127930	1595.732300	45614.152344	40304.167969
583.552795	1503.713989	45293.210938	40728.250000
583.977539	1550.845337	45176.507813	40588.187500
584.402283	1519.424438	45569.265625	41441.093750
584.826965	1546.356567	45131.617188	41236.132813
585.251587	1550.845337	45852.054688	41406.898438
585.676208	1541.867920	45335.855469	41113.417969
586.100647	1514.935791	45266.281250	41587.195313
586.525208	1620.420166	45699.437500	41628.339844
586.949524	1577.777466	45259.546875	41623.765625
587.373962	1541.867920	45396.453125	41457.062500
587.798218	1582.266235	45486.226563	41372.714844
588.222534	1582.266235	45528.867188	41820.664063
588.646729	1577.777466	45582.734375	42283.203125
589.070984	1532.890503	45625.375000	41921.632813
589.495117	1573.288818	45618.644531	41658.070313
589.919128	1573.288818	45638.843750	41788.570313
590.343201	1510.447021	45546.824219	41910.148438
590.767151	1530.646240	45941.828125	42004.355469
591.191101	1588.999268	45499.691406	42246.261719
591.614990	1526.157471	45558.046875	42315.554688
592.038818	1528.401855	45793.703125	42041.152344
592.462524	1523.913086	45798.191406	42255.496094
592.886292	1535.134888	45775.746094	42609.828125
593.310059	1600.221069	45733.105469	42340.980469
593.733582	1606.954102	45593.953125	42225.488281
594.157227	1557.578369	45771.257813	42209.335938
594.580750	1584.510620	45946.316406	42087.183594
595.004272	1580.021851	45676.996094	42264.730469
595.427673	1584.510620	46096.687500	42299.375000
595.851074	1521.668823	45964.273438	42218.562500
596.274353	1591.243652	45782.480469	42387.242188
596.697632	1575.533203	45973.250000	42352.542969
597.120911	1575.533203	45912.652344	41926.222656
597.544067	1564.311401	45560.289063	42082.582031
597.967224	1588.999268	46314.390625	42253.183594
598.390320	1555.333984	45804.921875	41946.898438
598.813354	1557.578369	46449.050781	42103.304688
599.236328	1499.225342	45757.792969	42322.488281
599.659241	1571.044434	46141.574219	42043.453125
600.082153	1577.777466	46045.070313	42568.023438
600.505005	1553.089722	46072.000000	41905.558594
600.927795	1541.867920	46137.085938	41839.011719
601.350525	1593.487915	45995.691406	42101.003906
601.773254	1613.687134	46040.582031	41889.488281
602.195862	1600.221069	45878.988281	41735.882813
602.618408	1555.333984	46054.046875	41861.949219
603.040955	1528.401855	46202.171875	42371.046875
603.463440	1553.089722	45979.984375	41484.441406
603.885925	1622.664551	46233.593750	41648.917969
604.308350	1526.157471	45892.453125	41783.988281
604.730652	1550.845337	46168.507813	41786.281250
605.152893	1588.999268	46107.910156	42015.847656
605.575195	1564.311401	46300.925781	41871.128906
605.997375	1535.134888	46058.535156	41829.835938
606.419495	1568.800171	46056.289063	41825.250000
606.841553	1562.067017	46058.535156	41822.960938
607.263672	1568.800171	46478.226563	41845.890625
607.685608	1571.044434	46608.402344	42073.371094
608.107605	1600.221069	46139.332031	41559.777344
608.529480	1512.691406	46366.011719	42142.468750
608.951294	1541.867920	46345.812500	41774.820313
609.373108	1557.578369	46677.976563	42278.585938
609.794800	1510.447021	46426.609375	41765.660156
610.216553	1573.288818	46754.285156	41694.675781
610.638123	1492.492188	46938.320313	42064.167969
611.059753	1492.492188	46781.214844	42352.542969
611.481262	1564.311401	47577.960938	42952.433594
611.902832	1539.623535	47032.582031	42098.699219
612.324219	1588.999268	47304.148438	42147.078125
612.745605	1580.021851	47553.273438	42101.003906
613.166931	1508.202637	47941.542969	41926.222656
613.588196	1541.867920	47719.355469	41933.113281
614.009460	1514.935791	47766.484375	42280.894531
614.430664	1575.533203	48094.160156	42068.769531
614.851807	1604.709717	48134.558594	42343.292969
615.272827	1606.954102	48145.781250	42197.800781
615.693909	1595.732300	47903.390625	42052.656250
616.114929	1604.709717	48148.023438	41742.750000
616.535889	1512.691406	47829.328125	41587.195313
616.956787	1557.578369	48320.839844	41011.289063
617.377563	1546.356567	47966.230469	40990.882813
617.798340	1588.999268	48980.679688	40909.289063
618.219055	1586.754883	48208.621094	40351.449219
618.639832	1595.732300	48439.789063	40211.914063
619.060364	1555.333984	48006.628906	39798.812500
619.481018	1546.356567	47692.421875	39518.941406
619.901611	1580.021851	47640.800781	39619.628906
620.322083	1593.487915	47878.703125	39154.789063
620.742493	1584.510620	47591.425781	39210.582031
621.162842	1577.777466	46588.203125	38760.234375
621.583191	1537.379272	47620.601563	38355.304688
622.003418	1550.845337	46862.011719	38195.296875
622.423706	1573.288818	46974.230469	37312.164063
622.843872	1642.863647	46938.320313	37482.878906
623.264038	1602.465332	46552.292969	36678.460938
623.684143	1611.442749	46532.093750	36702.828125
624.104126	1562.067017	46395.187500	36623.085938
624.524170	1609.198364	46051.800781	36479.125000
624.944031	1595.732300	45672.507813	35876.757813
625.364014	1645.108032	45946.316406	35458.183594
625.783752	1532.890503	46024.871094	35433.820313
626.203552	1559.822754	45845.320313	35529.058594
626.623230	1595.732300	45771.257813	35247.753906
627.042969	1557.578369	45189.972656	34341.402344
627.462585	1595.732300	45077.753906	34356.921875
627.882141	1597.976685	45172.015625	34037.613281
628.301697	1611.442749	44972.269531	33698.214844
628.721130	1559.822754	44803.945313	33254.347656
629.140625	1532.890503	44426.894531	33525.136719
629.559998	1532.890503	44029.644531	32905.734375
629.979309	1553.089722	44301.210938	32730.259766
630.398560	1573.288818	44072.285156	32214.742188
630.817810	1562.067017	43785.007813	31732.294922
631.237000	1530.646240	44016.175781	31994.667969
631.656067	1580.021851	43933.136719	31801.228516
632.075195	1539.623535	43666.058594	31443.166016
632.494202	1642.863647	43807.453125	31140.621094
632.913208	1566.555786	43910.691406	31038.277344
633.332092	1606.954102	43113.949219	30720.074219
633.750977	1573.288818	43594.238281	30435.212891
634.169739	1568.800171	43704.210938	30232.675781
634.588562	1602.465332	42743.632813	30392.927734
635.007263	1595.732300	43143.125000	30063.519531
635.425964	1568.800171	42543.882813	29620.582031
635.844543	1600.221069	43293.496094	29678.451172
636.263123	1548.600952	43262.074219	28777.109375
636.681641	1535.134888	43028.664063	29150.964844
637.100037	1597.976685	42963.578125	28654.732422
637.518494	1564.311401	42943.378906	28530.140625
637.936829	1544.112305	43024.175781	28305.466797
638.355164	1571.044434	42698.746094	27876.257813
638.773438	1575.533203	43293.496094	27840.683594
639.191650	1606.954102	42427.179688	27522.812500
639.609863	1571.044434	42703.234375	27313.933594
640.027893	1519.424438	42492.265625	26867.496094
640.445984	1564.311401	42454.109375	27391.701172
640.863953	1528.401855	42389.023438	26414.724609
641.281921	1550.845337	43156.589844	27067.355469
641.699829	1573.288818	42225.187500	26377.009766
642.117676	1559.822754	43006.218750	25971.187500
642.535461	1591.243652	42415.957031	26000.007813
642.953247	1613.687134	41884.046875	26257.226563
643.370972	1577.777466	42222.941406	25463.822266
643.788635	1564.311401	42460.843750	25178.251953
644.206177	1577.777466	42418.199219	25222.513672
644.623718	1505.958374	42332.914063	24766.820313
645.041260	1539.623535	42200.500000	24890.652344
645.458618	1582.266235	42148.878906	24552.412109
645.876099	1523.913086	42056.859375	24563.460938
646.293396	1584.510620	41991.773438	24161.451172
646.710693	1568.800171	41731.429688	23834.826172
647.127991	1604.709717	41985.042969	23407.074219
647.545166	1555.333984	41987.285156	23733.361328
647.962341	1602.465332	42068.082031	23435.726563
648.379333	1537.379272	42050.128906	23208.785156
648.796448	1613.687134	41560.859375	22966.556641
649.213379	1575.533203	41895.265625	22733.271484
649.630310	1597.976685	41230.941406	22638.673828
650.047180	1539.623535	41484.550781	22328.626953
650.463989	1541.867920	41623.699219	22115.460938
650.880859	1593.487915	41760.605469	22045.158203
651.297546	1640.619263	42011.972656	21854.085938
651.714233	1609.198364	41542.906250	21316.417969
652.130859	1555.333984	41740.406250	21527.023438
652.547485	1568.800171	41601.257813	20882.310547
652.963928	1541.867920	41296.027344	21108.089844
653.380432	1584.510620	41529.437500	20759.595703
653.796814	1544.112305	41480.062500	20674.150391
654.213196	1580.021851	41403.753906	20853.820313
654.629578	1571.044434	41560.859375	20332.480469
655.045837	1566.555786	41219.718750	20310.583984
655.462036	1651.841064	41049.148438	20067.587891
655.878174	1537.379272	41367.843750	19969.099609
656.294312	1609.198364	41724.695313	19524.949219
656.710327	1566.555786	41545.148438	19476.828125
657.126404	1613.687134	41210.742188	19430.896484
657.542358	1559.822754	40898.777344	19008.837891
657.958252	1573.288818	41291.539063	18720.242188
658.374084	1575.533203	41336.425781	18545.353516
658.789917	1591.243652	41475.574219	18477.583984
659.205688	1472.293091	40999.773438	18468.841797
659.621338	1463.315674	41067.101563	18202.150391
660.037048	1539.623535	40831.445313	17784.613281
660.452637	1597.976685	40777.582031	17649.066406
660.868164	1546.356567	40862.867188	17587.849609
661.283691	1566.555786	40699.027344	17345.140625
661.699158	1494.736572	40638.433594	17165.812500
662.114502	1546.356567	41255.628906	16988.644531
662.529846	1550.845337	40306.269531	16726.101563
662.945129	1571.044434	41010.992188	16931.765625
663.360413	1521.668823	40510.503906	16432.814453
663.775635	1588.999268	40555.390625	16187.573242
664.190674	1553.089722	40492.550781	16196.335938
664.605835	1575.533203	40811.246094	16095.580078
665.020813	1564.311401	40791.046875	15780.040039
665.435791	1463.315674	40541.925781	15661.655273
665.850769	1658.574097	40342.175781	15416.006836
666.265625	1517.180054	39922.484375	14972.550781
666.680420	1584.510620	40111.007813	15099.937500
667.095215	1591.243652	39994.304688	14763.791016
667.509949	1584.510620	40131.207031	14851.706055
667.924622	1559.822754	39606.031250	14594.481445
668.339233	1620.420166	39895.550781	14389.859375
668.753784	1595.732300	39834.953125	14264.371094
669.168335	1566.555786	39749.667969	13920.624023
669.582825	1609.198364	39381.597656	13867.699219
669.997192	1577.777466	39119.007813	13819.173828
670.411560	1555.333984	39267.132813	13521.187500
670.825867	1523.913086	39565.632813	13538.856445
671.240173	1564.311401	38910.281250	13428.403320
671.654358	1580.021851	39251.425781	12897.439453
672.068481	1564.311401	39150.429688	12979.382813
672.482605	1597.976685	39388.328125	12740.100586
672.896667	1519.424438	38908.039063	12700.193359
673.310669	1557.578369	39105.542969	12547.136719
673.724609	1624.908813	38777.867188	11987.087891
674.138489	1528.401855	38706.046875	12027.149414
674.552307	1523.913086	38400.816406	11924.754883
674.966064	1553.089722	38495.078125	11991.540039
675.379822	1627.153198	38324.507813	11793.334961
675.793579	1519.424438	38133.738281	11465.464844
676.207153	1519.424438	38421.015625	11259.941406
676.620789	1539.623535	38129.250000	11148.136719
677.034241	1530.646240	38019.277344	11235.351563
677.447754	1566.555786	38196.578125	10906.374023
677.861206	1564.311401	37857.683594	10574.465820
678.274597	1564.311401	38088.851563	10879.488281
678.687866	1544.112305	37577.140625	10518.330078
679.101135	1544.112305	37702.824219	10385.767578
679.514404	1559.822754	37101.335938	10345.301758
679.927551	1557.578369	37256.199219	10145.061523
680.340698	1492.492188	37772.398438	10012.169922
680.753723	1546.356567	37467.167969	9994.141602
681.166748	1470.048706	36782.640625	9775.370117
681.579712	1577.777466	37224.777344	9628.585938
681.992615	1537.379272	36984.632813	9468.082031
682.405457	1577.777466	37289.863281	9490.699219
682.818298	1530.646240	36924.035156	9126.122070
683.231018	1573.288818	36614.312500	9153.328125
683.643738	1535.134888	36917.300781	9005.898438
684.056335	1613.687134	36313.570313	8810.597656
684.468994	1562.067017	36742.242188	8833.321289
684.881531	1573.288818	36468.429688	8539.896484
685.293945	1620.420166	36315.816406	8583.153320
685.706482	1546.356567	35842.257813	8567.217773
686.118774	1613.687134	36147.488281	8382.687500
686.531128	1555.333984	35936.519531	7990.003418
686.943481	1593.487915	36284.394531	8019.723145
687.355713	1559.822754	36405.589844	7887.074707
687.767883	1521.668823	35929.785156	7880.209961
688.179932	1609.198364	35483.160156	7628.253418
688.592041	1633.886230	35460.718750	7690.142578
689.004089	1580.021851	35689.640625	7474.551758
689.416016	1568.800171	35456.230469	7442.412109
689.827881	1620.420166	35808.593750	7265.500977
690.239868	1566.555786	35092.644531	7288.489746
690.651611	1566.555786	35373.187500	7329.860352
691.063354	1571.044434	35079.179688	7019.258301
691.475098	1539.623535	34904.121094	6957.047363
691.886719	1523.913086	35162.218750	6929.388184
692.298340	1555.333984	34883.921875	6802.540527
692.709900	1559.822754	35000.625000	6730.988281
693.121460	1530.646240	34776.191406	6629.361328
693.532837	1541.867920	34834.542969	6432.802734
693.944214	1553.089722	34863.722656	6437.431152
694.355652	1559.822754	34607.867188	6566.958496
694.766846	1539.623535	34293.656250	6411.972168
695.178101	1573.288818	34596.644531	6168.694824
695.589294	1611.442749	33999.648438	6124.622070
696.000366	1544.112305	34417.093750	6003.920898
696.411438	1595.732300	33912.117188	6003.920898
696.822510	1546.356567	33939.050781	5769.140625
697.233459	1584.510620	34152.261719	5755.179199
697.644409	1591.243652	34022.089844	5578.191895
698.055298	1595.732300	33867.230469	5412.612305
698.466064	1577.777466	34174.707031	5538.567383
698.876831	1474.537476	33965.980469	5375.267090
699.287537	1501.469604	34087.175781	5347.250000
699.698181	1488.003540	33815.609375	5447.613281
700.108826	1571.044434	33676.460938	5246.801758
700.519348	1606.954102	33788.679688	5218.754395
700.929810	1602.465332	33734.812500	5265.496582
701.340271	1488.003540	33916.605469	4989.449219
701.750732	1562.067017	33487.933594	4930.880859
702.161011	1530.646240	33638.304688	4698.655762
702.571350	1566.555786	33456.515625	4738.566895
702.981567	1562.067017	33342.050781	4675.172852
703.391724	1519.424438	33115.375000	4773.770020
703.801880	1604.709717	33005.398438	4527.115723
704.211914	1568.800171	32738.322266	4440.070801
704.621948	1571.044434	33007.644531	4449.484375
705.031921	1535.134888	33007.644531	4458.896973
705.441895	1517.180054	33411.628906	4301.128418
705.851746	1577.777466	32758.521484	4192.679199
706.261536	1591.243652	32895.425781	4402.408691
706.671265	1562.067017	32435.335938	4093.566406
707.081055	1573.288818	32677.724609	3954.183350
707.490662	1530.646240	32482.466797	4110.091797
707.900330	1505.958374	32383.714844	4006.177979
708.309814	1530.646240	32130.103516	3847.752441
708.719299	1638.375000	32561.019531	3852.485107
709.128784	1550.845337	32430.845703	3793.313232
709.538147	1573.288818	32174.990234	3655.906494
709.947510	1550.845337	32183.968750	3648.794434
710.356750	1566.555786	32089.705078	3558.665283
710.766052	1573.288818	32433.091797	3591.879883
711.175171	1633.886230	31928.113281	3584.763428
711.584290	1611.442749	31750.808594	3292.558838
711.993347	1517.180054	31777.740234	3325.860352
712.402405	1620.420166	31607.169922	3359.150879
712.811401	1557.578369	31609.414063	3171.152344
713.220276	1611.442749	31764.275391	3168.770752
713.629150	1611.442749	31604.925781	3330.616943
714.037964	1597.976685	31658.791016	3194.969727
714.446777	1544.112305	31636.347656	3075.827393
714.855408	1546.356567	31409.667969	3106.818359
715.264099	1526.157471	31227.875000	3142.564697
715.672668	1546.356567	31232.363281	2949.378662
716.081177	1510.447021	31310.916016	2927.889648
716.489746	1613.687134	30660.054688	3092.516113
716.898132	1555.333984	31236.853516	2827.544189
717.306519	1532.890503	30671.277344	2892.063965
717.714844	1575.533203	30617.412109	2758.196289
718.123108	1566.555786	30956.308594	2693.585205
718.531372	1615.931396	30581.501953	2731.878418
718.939514	1575.533203	30601.701172	2566.624756
719.347595	1597.976685	30274.027344	2595.385986
719.755676	1555.333984	30711.675781	2652.880859
720.163696	1573.288818	29935.130859	2509.075928
720.571716	1629.397583	30361.556641	2461.090332
720.979614	1557.578369	30384.000000	2425.084717
721.387451	1582.266235	29822.912109	2386.662598
721.795227	1602.465332	29836.378906	2333.805176
722.202942	1584.510620	29317.933594	2362.640625
722.610718	1555.333984	29454.839844	2389.064453
723.018311	1517.180054	29596.234375	2316.980469
723.425903	1600.221069	29427.908203	2138.921387
723.833374	1566.555786	29322.421875	2083.504150
724.240906	1530.646240	29178.785156	2122.058838
724.648376	1573.288818	29035.146484	2170.228271
725.055725	1537.379272	29127.164063	2131.695068
725.463013	1638.375000	29131.652344	2184.673828
725.870300	1548.600952	28741.136719	2187.081299
726.277466	1575.533203	28768.068359	2003.929565
726.684631	1505.958374	29026.167969	2032.874512
727.091797	1535.134888	28696.250000	2093.144531
727.498779	1512.691406	28994.748047	1904.959961
727.905823	1553.089722	29106.964844	1863.889526
728.312805	1584.510620	29059.833984	1859.056274
728.719666	1604.709717	28732.158203	1926.695068
729.126526	1505.958374	28554.855469	1808.290894
729.533264	1550.845337	28754.601563	1871.138672
729.940063	1575.533203	28884.775391	1716.349609
730.346680	1559.822754	28570.566406	1735.714355
730.753357	1503.713989	28415.705078	1655.804688
731.159851	1544.112305	28411.216797	1723.611694
731.566406	1591.243652	28824.177734	1556.411987
731.972900	1544.112305	28229.423828	1636.421021
732.379272	1490.247925	28570.566406	1580.665649
732.785645	1600.221069	28806.222656	1626.727173
733.191895	1546.356567	28875.796875	1595.214233
733.598206	1573.288818	28658.095703	1568.539917
734.004333	1611.442749	28830.910156	1524.871094
734.410522	1539.623535	28545.878906	1481.178345
734.816528	1584.510620	29174.294922	1503.027954
735.222656	1559.822754	29369.554688	1408.301880
735.628662	1575.533203	28893.751953	1381.563354
736.034546	1555.333984	29291.001953	1376.700684
736.440430	1550.845337	29513.193359	1464.179932
736.846252	1555.333984	29517.681641	1398.579956
737.252014	1636.130615	29771.292969	1435.031372
737.657715	1582.266235	29609.699219	1293.989380
738.063354	1568.800171	29665.808594	1366.974731
738.468933	1523.913086	29858.822266	1354.815186
738.874512	1571.044434	29800.468750	1396.149170
739.280029	1584.510620	29919.419922	1342.654053
739.685486	1577.777466	30422.154297	1318.325806
740.090881	1613.687134	30157.320313	1313.458984
740.496216	1577.777466	30056.324219	1218.497070
740.901550	1537.379272	30002.460938	1257.470337
741.306702	1600.221069	30051.835938	1301.291260
741.711914	1530.646240	29598.478516	1264.775635
742.117004	1573.288818	29551.345703	1262.340576
742.522095	1559.822754	29784.757813	1223.369751
742.927124	1582.266235	29501.970703	1157.560059
743.332031	1535.134888	28812.955078	1169.751465
743.737000	1537.379272	29400.974609	1233.114502
744.141785	1597.976685	29450.351563	1169.751465
744.546631	1528.401855	28954.349609	1052.630127
744.951355	1580.021851	29109.208984	1108.774292
745.356079	1568.800171	28880.285156	1086.809937
745.760620	1571.044434	28545.878906	1045.303955
746.165283	1519.424438	28357.353516	1035.534180
746.569824	1496.980957	28043.144531	1040.419189
746.974243	1555.333984	27987.035156	1023.320251
747.378723	1580.021851	27661.603516	927.980103
747.783020	1532.890503	27672.826172	932.872559
748.187378	1548.600952	27259.865234	874.141724
748.591614	1537.379272	27681.802734	935.318420
748.995850	1571.044434	27214.978516	820.261658
749.399963	1575.533203	27102.761719	827.611511
749.804077	1557.578369	26795.285156	864.348511
750.208130	1532.890503	26990.544922	937.764404
750.612122	1537.379272	26802.019531	879.037842
751.016052	1517.180054	26328.460938	883.933472
751.419922	1562.067017	26373.347656	820.261658
751.823792	1490.247925	26357.636719	771.243530
752.227478	1609.198364	26220.732422	793.306091
752.631226	1539.623535	26270.107422	793.306091
753.034851	1577.777466	25928.966797	795.757080
753.438477	1539.623535	25794.306641	619.062500
753.842102	1559.822754	25904.279297	746.721436
754.245544	1564.311401	25367.878906	732.003601
754.648987	1615.931396	25536.205078	736.909912
755.052368	1580.021851	25073.869141	687.831909
755.455750	1606.954102	25042.449219	687.831909
755.859009	1546.356567	25343.191406	646.087463
756.262268	1595.732300	24663.154297	584.651245
756.665405	1582.266235	24609.289063	665.735046
757.068542	1627.153198	24562.158203	717.282898
757.471680	1566.555786	24701.308594	670.646179
757.874634	1559.822754	24461.162109	574.816284
758.277588	1541.867920	24306.302734	547.762207
758.680420	1553.089722	24833.724609	552.681885
759.083374	1562.067017	24158.175781	592.026672
759.486084	1555.333984	24182.863281	589.568298
759.888916	1526.157471	23927.007813	577.275085
760.291504	1546.356567	23693.595703	582.192688
760.694214	1568.800171	23931.496094	510.852356
761.096802	1566.555786	23610.554688	439.434113
761.499268	1514.935791	23799.080078	456.680237
761.901733	1550.845337	23480.380859	454.216766
762.304199	1580.021851	23255.947266	473.921783
762.706543	1550.845337	23332.253906	505.929535
763.108826	1573.288818	23260.435547	505.929535
763.511108	1586.754883	23181.882813	491.158691
763.913208	1571.044434	22919.294922	419.718536
764.315369	1537.379272	23015.800781	486.234253
764.717529	1546.356567	23083.132813	412.323669
765.119568	1492.492188	22867.673828	441.898041
765.521545	1544.112305	22910.316406	486.234253
765.923462	1654.085449	22443.492188	372.869751
766.325317	1535.134888	22445.736328	451.753143
766.727112	1501.469604	22418.804688	392.599762
767.128845	1604.709717	22412.072266	456.680237
767.530518	1577.777466	22501.845703	353.133759
767.932251	1609.198364	22225.791016	313.642975
768.333862	1597.976685	21803.853516	296.358002
768.735413	1539.623535	22131.527344	404.927979
769.136841	1566.555786	21660.214844	306.235748
769.538269	1654.085449	22001.355469	325.986542
769.939636	1618.175781	21669.191406	348.198700
770.341003	1588.999268	21716.324219	316.111908
770.742249	1492.492188	21521.064453	291.418610
771.143433	1620.420166	21467.201172	358.068298
771.544617	1566.555786	21397.625000	308.704956
771.945740	1537.379272	21460.466797	360.535492
772.346802	1622.664551	21173.191406	313.642975
772.747803	1584.510620	21193.390625	328.454987
773.148682	1566.555786	20773.697266	288.948700
773.549622	1609.198364	21229.298828	323.517975
773.950439	1559.822754	21020.574219	264.244659
774.351196	1566.555786	21148.501953	237.058868
774.751892	1510.447021	20867.958984	330.923218
775.152588	1496.980957	20980.175781	279.068390
775.553162	1566.555786	21175.435547	286.478821
775.953735	1595.732300	20695.144531	284.008728
776.354309	1571.044434	20625.570313	281.538544
776.754639	1620.420166	20551.505859	284.008728
777.155090	1595.732300	20656.990234	202.441605
777.555420	1517.180054	20318.093750	244.474472
777.955750	1548.600952	20648.013672	269.186340
778.355896	1618.175781	20261.984375	390.133820
778.756104	1591.243652	19994.908203	192.547318
779.156189	1519.424438	20024.083984	199.968155
779.556274	1584.510620	20172.210938	256.831573
779.956299	1604.709717	20127.324219	232.114761
780.356201	1562.067017	20080.193359	264.244659
780.756165	1609.198364	19864.734375	249.417572
781.156006	1553.089722	19611.123047	192.547318
781.555786	1562.067017	19714.363281	288.948700
781.955505	1532.890503	19673.964844	187.599533
782.355225	1595.732300	19626.833984	212.334167
782.754761	1501.469604	19530.326172	204.914825
783.154358	1595.732300	19682.943359	187.599533
783.553894	1483.514893	19458.507813	224.697815
783.953369	1597.976685	19238.562500	175.228531
784.352783	1559.822754	19254.271484	143.052032
784.752075	1595.732300	19469.730469	170.279327
785.151367	1575.533203	19009.638672	232.114761
785.550598	1600.221069	19092.679688	155.429565
785.949768	1580.021851	18915.375000	246.946014
786.348877	1548.600952	19146.542969	150.478882
786.747986	1582.266235	18823.357422	165.329849
787.147034	1564.311401	18892.931641	88.560501
787.545959	1517.180054	19007.394531	175.228531
787.944885	1593.487915	18578.722656	180.177200
788.343750	1550.845337	18966.996094	135.624161
788.742493	1660.818481	18935.574219	133.148132
789.141235	1544.112305	18547.302734	128.195496
789.539917	1591.243652	18610.144531	214.807114
789.938538	1566.555786	18484.460938	185.125595
790.337158	1521.668823	18264.513672	162.854889
790.735718	1537.379272	18417.128906	180.177200
791.134094	1566.555786	18392.441406	160.379974
791.532532	1539.623535	18264.513672	143.052032
791.930847	1580.021851	18152.296875	108.381325
792.329224	1510.447021	18044.568359	125.719162
792.727417	1595.732300	17802.177734	219.752731
793.125610	1512.691406	17900.929688	160.379974
793.523682	1602.465332	17903.173828	224.697815
793.921753	1514.935791	17856.042969	128.195496
794.319824	1559.822754	17645.074219	170.279327
794.717773	1532.890503	17449.814453	81.126038
795.115723	1593.487915	17694.449219	172.753967
795.513550	1512.691406	17627.119141	113.335434
795.911377	1514.935791	17663.029297	36.499744
796.309082	1575.533203	17705.671875	170.279327
796.706787	1544.112305	17373.507813	185.125595
797.104370	1593.487915	17321.886719	110.858360
797.501953	1627.153198	17377.996094	118.289154
797.899536	1566.555786	17205.181641	88.560501
798.296936	1609.198364	17191.714844	155.429565
798.694397	1586.754883	17303.933594	91.038498
799.091736	1593.487915	17225.380859	51.378838
799.489014	1568.800171	16944.835938	51.378838
799.886230	1535.134888	16956.058594	98.471725
800.283447	1499.225342	16994.212891	157.904816
800.680542	1535.134888	16906.683594	31.539263
801.077637	1593.487915	16834.863281	86.082405
801.474670	1564.311401	16902.193359	68.733139
801.871643	1566.555786	16769.777344	239.530838
802.268555	1541.867920	16873.017578	81.126038
802.665405	1568.800171	16951.570313	120.765923
803.062256	1604.709717	16733.867188	36.499744
803.458923	1571.044434	16502.699219	56.337803
803.855652	1555.333984	16594.718750	53.858368
804.252258	1573.288818	16583.496094	56.337803
804.648804	1622.664551	16684.492188	38.979897
805.045410	1586.754883	16430.880859	103.426659
805.441833	1526.157471	16460.056641	157.904816
805.838257	1562.067017	16343.351563	100.949181
806.234619	1530.646240	16543.097656	66.254356
806.630859	1600.221069	16480.255859	38.979897
807.027100	1541.867920	16181.757813	73.690659
807.423279	1633.886230	16154.826172	36.499744
807.819458	1575.533203	16098.716797	48.899338
808.215515	1505.958374	16273.776367	38.979897
808.611572	1611.442749	15901.214844	100.949181
809.007507	1566.555786	15896.725586	86.082405
809.403381	1553.089722	16049.341797	93.516251
809.799194	1479.026123	15847.349609	53.858368
810.195068	1546.356567	16047.096680	51.378838
810.590759	1550.845337	15863.060547	71.211952
810.986450	1541.867920	15836.127930	91.038498
811.382080	1503.713989	15928.146484	130.671860
811.777649	1595.732300	15600.471680	46.419598
812.173157	1568.800171	15625.159180	78.647636
812.568665	1530.646240	15569.050781	53.858368
812.964050	1620.420166	15726.155273	103.426659
813.359375	1526.157471	15548.851563	24.097698
813.754639	1584.510620	15548.851563	19.136045
814.149841	1512.691406	15492.743164	-32.985664
814.545105	1593.487915	15503.964844	66.254356
814.940186	1568.800171	15456.833008	29.058800
815.335266	1604.709717	15275.041016	-28.019629
815.730347	1591.243652	15328.905273	68.733139
816.125244	1555.333984	15259.330078	6.730368
816.520203	1557.578369	15099.981445	16.655066
816.914978	1566.555786	15012.452148	21.616924
817.309753	1566.555786	15153.845703	9.211631
817.704468	1537.379272	14987.764648	41.459812
818.099182	1535.134888	15207.710938	68.733139
818.493774	1582.266235	15106.714844	26.578234
818.888367	1546.356567	14621.935547	-28.019629
819.282898	1591.243652	15165.067383	-8.160073
819.677307	1541.867920	14902.478516	51.378838
820.071716	1573.288818	14931.655273	-35.468845
820.466003	1627.153198	14619.691406	29.058800
820.860291	1618.175781	14817.193359	4.248866
821.254517	1573.288818	14803.727539	31.539263
821.648743	1566.555786	14707.220703	58.816990
822.042786	1591.243652	14480.541016	24.097698
822.436890	1654.085449	14489.518555	-20.571491
822.830872	1573.288818	14574.803711	53.858368
823.224792	1544.112305	14774.550781	34.019489
823.618774	1580.021851	14410.966797	78.647636
824.012512	1550.845337	14500.740234	29.058800
824.406311	1588.999268	14455.853516	9.211631
824.799988	1577.777466	14345.879883	63.775337
825.193665	1575.533203	14285.283203	78.647636
825.587280	1539.623535	14370.568359	61.296215
825.980835	1535.134888	14105.735352	-52.853626
826.374329	1559.822754	14375.056641	-30.502596
826.767761	1564.311401	14112.467773	36.499744
827.161194	1568.800171	14446.875977	29.058800
827.554443	1606.954102	13984.540039	26.578234
827.947754	1604.709717	14188.776367	4.248866
828.340942	1609.198364	14081.046875	68.733139
828.734131	1532.890503	14139.400391	-0.714451
829.127136	1488.003540	13751.127930	-52.853626
829.520264	1541.867920	13946.385742	21.616924
829.913208	1481.270508	13681.552734	-30.502596
830.306152	1629.397583	13784.792969	-18.089081
830.699097	1588.999268	13946.385742	-37.951992
831.091797	1571.044434	13885.789063	16.655066
831.484619	1595.732300	13865.589844	29.058800
831.877319	1631.641846	13701.751953	24.097698
832.270020	1582.266235	13504.249023	11.692924
832.662537	1499.225342	13614.222656	-25.536900
833.055054	1555.333984	13605.245117	-8.160073
833.447510	1559.822754	13362.855469	83.604340
833.839966	1642.863647	13600.756836	14.174114
834.232361	1582.266235	13221.460938	41.459812
834.624634	1557.578369	13627.688477	46.419598
835.016907	1555.333984	13450.384766	1.767260
835.409058	1595.732300	13331.434570	-10.642067
835.801208	1544.112305	13203.506836	4.248866
836.193298	1541.867920	13210.239258	11.692924
836.585327	1588.999268	12965.605469	-3.196131
836.977295	1593.487915	13147.397461	-92.610138
837.369202	1609.198364	13010.492188	-45.402336
837.761047	1633.886230	12988.048828	-72.728485
838.152832	1553.089722	12860.121094	-20.571491
838.544617	1609.198364	12808.500977	21.616924
838.936218	1508.202637	12759.125000	9.211631
839.327942	1519.424438	12786.057617	56.337803
839.719421	1532.890503	12779.324219	41.459812
840.111023	1575.533203	12871.342773	6.730368
840.502380	1584.510620	12637.930664	38.979897
840.893860	1600.221069	12770.347656	38.979897
841.285217	1568.800171	12680.573242	71.211952
841.676453	1559.822754	12810.745117	-52.853626
842.067749	1636.130615	12633.441406	-45.402336
842.458862	1573.288818	12586.310547	63.775337
842.849976	1546.356567	12763.614258	-10.642067
843.241028	1559.822754	12449.405273	-32.985664
843.632019	1575.533203	12761.370117	43.939758
844.022949	1544.112305	12584.066406	-0.714451
844.413879	1604.709717	12393.296875	6.730368
844.804749	1593.487915	12518.980469	29.058800
845.195496	1537.379272	12534.690430	-55.337650
845.586182	1517.180054	12240.680664	-60.306007
845.976807	1555.333984	12568.355469	-5.678050
846.367432	1591.243652	12177.838867	46.419598
846.757996	1595.732300	12222.725586	51.378838
847.148499	1559.822754	12211.503906	46.419598
847.538879	1593.487915	12090.309570	-5.678050
847.929260	1602.465332	12047.666992	4.248866
848.319641	1564.311401	12076.843750	-50.369846
848.709839	1494.736572	11975.847656	-55.337650
849.100098	1532.890503	11809.765625	9.211631
849.490234	1535.134888	11497.800781	-82.668457
849.880310	1591.243652	11587.575195	-30.502596
850.270325	1584.510620	11764.878906	56.337803
850.660339	1548.600952	11836.698242	-5.678050
851.050171	1470.048706	11576.353516	6.730368
851.440125	1546.356567	11596.552734	31.539263
851.829895	1476.781860	11513.511719	-90.124527
852.219604	1557.578369	11616.751953	-18.089081
852.609314	1568.800171	11448.425781	19.136045
852.998901	1521.668823	11374.362305	-10.642067
853.388550	1537.379272	11347.429688	21.616924
853.778015	1562.067017	11289.077148	58.816990
854.167480	1593.487915	11248.678711	71.211952
854.556885	1548.600952	11432.714844	-5.678050
854.946228	1517.180054	11520.245117	-13.124300
855.335571	1510.447021	11356.407227	-28.019629
855.724731	1521.668823	11500.045898	-25.536900
856.113953	1553.089722	11322.742188	-8.160073
856.503052	1512.691406	11461.891602	4.248866
856.892151	1526.157471	11212.768555	-20.571491
857.281067	1615.931396	11403.538086	6.730368
857.670105	1571.044434	11336.208008	-40.435379
858.058960	1539.623535	11120.750977	4.248866
858.447754	1519.424438	11298.053711	19.136045
858.836609	1593.487915	11028.732422	16.655066
859.225281	1523.913086	11127.483398	46.419598
859.613892	1526.157471	10968.134766	-50.369846
860.002502	1564.311401	11129.727539	-45.402336
860.391052	1571.044434	11055.664063	-62.790207
860.779541	1530.646240	11102.795898	-8.160073
861.167969	1553.089722	10900.804688	16.655066
861.556335	1591.243652	10945.691406	-75.213356
861.944702	1573.288818	10725.745117	26.578234
862.332947	1548.600952	10837.962891	-13.124300
862.721069	1452.093994	10750.432617	24.097698
863.109253	1555.333984	10759.410156	-3.196131
863.497314	1528.401855	10954.668945	-13.124300
863.885376	1566.555786	10712.279297	26.578234
864.273315	1627.153198	10683.102539	-10.642067
864.661255	1602.465332	10534.975586	95.994041
865.049072	1606.954102	10478.866211	21.616924
865.436890	1550.845337	10696.568359	-15.606638
865.824707	1521.668823	10501.310547	-77.698326
866.212280	1517.180054	10411.536133	-50.369846
866.599915	1523.913086	10400.314453	14.174114
866.987488	1548.600952	10469.889648	-67.759201
867.375061	1523.913086	10494.577148	-129.906479
867.762451	1461.071411	10454.178711	36.499744
868.149841	1575.533203	10425.001953	-15.606638
868.537170	1559.822754	10016.530273	-55.337650
868.924438	1586.754883	10357.671875	14.174114
869.311707	1553.089722	10285.852539	-20.571491
869.698853	1535.134888	10223.010742	66.254356
870.085938	1602.465332	9924.512695	-55.337650
870.472961	1539.623535	9973.887695	38.979897
870.859985	1588.999268	10054.684570	21.616924
871.246887	1597.976685	9875.136719	-0.714451
871.633789	1546.356567	9951.444336	-60.306007
872.020569	1510.447021	9684.367188	-5.678050
872.407349	1546.356567	9774.140625	-70.243721
872.794067	1613.687134	9792.095703	48.899338
873.180725	1539.623535	9525.018555	-35.468845
873.567322	1606.954102	9715.788086	-20.571491
873.953796	1604.709717	9522.773438	-62.790207
874.340332	1595.732300	9448.709961	-70.243721
874.726624	1501.469604	9592.348633	14.174114
875.113037	1496.980957	9365.668945	-8.160073
875.499329	1564.311401	9471.153320	46.419598
875.885559	1541.867920	9349.958984	-57.821774
876.271729	1595.732300	9556.439453	-50.369846
876.657898	1568.800171	9275.895508	-18.089081
877.044006	1575.533203	9231.008789	-35.468845
877.429932	1517.180054	9231.008789	-18.089081
877.815918	1557.578369	9248.962891	-45.402336
878.201782	1521.668823	9141.234375	14.174114
878.587585	1541.867920	9165.921875	-13.124300
878.973389	1557.578369	8981.885742	-52.853626
879.359070	1470.048706	8896.600586	-0.714451
879.744751	1557.578369	8957.198242	-5.678050
880.130310	1535.134888	9062.682617	53.858368
880.515930	1541.867920	8936.999023	-57.821774
880.901367	1501.469604	8905.578125	-20.571491
881.286804	1544.112305	8968.419922	-40.435379
881.672180	1618.175781	9058.193359	6.730368
882.057434	1577.777466	8766.427734	-72.728485
882.442749	1564.311401	8941.487305	-40.435379
882.827942	1557.578369	8923.532227	26.578234
883.213013	1528.401855	8721.541016	36.499744
883.598145	1573.288818	8528.527344	-35.468845
883.983154	1591.243652	8649.721680	11.692924
884.368042	1640.619263	8784.382813	-30.502596
884.753052	1602.465332	8681.142578	-15.606638
885.137817	1604.709717	8721.541016	53.858368
885.522644	1584.510620	8712.563477	-23.054144
885.907349	1622.664551	8465.685547	-50.369846
886.292053	1494.736572	8604.834961	14.174114
886.676636	1568.800171	8499.350586	-35.468845
887.061157	1496.980957	8517.305664	-15.606638
887.445740	1559.822754	8575.658203	-72.728485
887.830078	1555.333984	8517.305664	-52.853626
888.214539	1568.800171	8559.948242	43.939758
888.598816	1541.867920	8416.309570	-37.951992
888.983093	1532.890503	8443.242188	-23.054144
889.367249	1523.913086	8335.512695	-95.095856
889.751465	1591.243652	8411.821289	36.499744
890.135498	1600.221069	8598.101563	29.058800
890.519531	1550.845337	8272.670898	6.730368
890.903503	1597.976685	8167.187012	-37.951992
891.287415	1606.954102	8223.295898	-67.759201
891.671326	1586.754883	8241.250000	-67.759201
892.055054	1537.379272	8200.852539	26.578234
892.438843	1523.913086	8366.933594	-20.571491
892.822510	1604.709717	8153.720703	-57.821774
893.206116	1541.867920	8111.078125	6.730368
893.589661	1492.492188	8034.770508	26.578234
893.973206	1571.044434	8164.942383	4.248866
894.356628	1548.600952	8086.390137	19.136045
894.739990	1566.555786	8030.281738	-25.536900
895.123352	1584.510620	8122.299805	9.211631
895.506592	1559.822754	7951.729492	11.692924
895.889832	1564.311401	8158.209473	-30.502596
896.272949	1503.713989	7875.421387	26.578234
896.656067	1546.356567	7884.398926	-42.918873
897.039063	1566.555786	7882.154297	-18.089081
897.422058	1490.247925	7695.873535	-15.606638
897.804993	1553.089722	7803.602539	-45.402336
898.187866	1553.089722	7817.068359	19.136045
898.570618	1555.333984	7904.598145	-35.468845
898.953369	1514.935791	7707.095215	-37.951992
899.336121	1600.221069	7693.629395	-25.536900
899.718689	1604.709717	7594.877930	-30.502596
900.101257	1577.777466	7718.316895	-20.571491
900.483704	1555.333984	7549.990723	-23.054144
900.866211	1546.356567	7729.538574	9.211631
901.248596	1537.379272	7556.724121	-90.124527
901.630920	1564.311401	7466.949707	-30.502596
902.013184	1550.845337	7527.547363	-62.790207
902.395386	1580.021851	7541.013672	-10.642067
902.777588	1544.112305	7188.650391	19.136045
903.159668	1548.600952	7343.510742	-60.306007
903.541687	1604.709717	7339.021973	-42.918873
903.923645	1584.510620	7197.627930	-15.606638
904.305603	1530.646240	7137.030762	36.499744
904.687500	1593.487915	7137.030762	-3.196131
905.069275	1568.800171	7121.320313	36.499744
905.451050	1539.623535	7291.890625	-20.571491
905.832642	1539.623535	7184.162109	-60.306007
906.214294	1548.600952	7184.162109	-18.089081
906.595825	1514.935791	7226.804688	-30.502596
906.977417	1588.999268	7141.519043	-15.606638
907.358826	1577.777466	7269.447266	76.169128
907.740234	1557.578369	7071.944336	6.730368
908.121582	1586.754883	7179.673340	-13.124300
908.502869	1539.623535	7069.700195	-70.243721
908.884033	1575.533203	7175.184570	-13.124300
909.265198	1571.044434	7098.876465	-32.985664
909.646301	1597.976685	7074.188965	-37.951992
910.027344	1537.379272	7125.809082	-37.951992
910.408325	1555.333984	7195.383789	29.058800
910.789246	1580.021851	7233.537598	1.767260
911.170105	1580.021851	7318.822754	-0.714451
911.550903	1577.777466	7352.488281	-42.918873
911.931641	1564.311401	7258.225586	-10.642067
912.312317	1555.333984	7374.931641	-3.196131
912.692932	1521.668823	7446.750977	-35.468845
913.073547	1566.555786	7460.216797	-37.951992
913.453979	1555.333984	7408.596680	-20.571491
913.834473	1573.288818	7594.877930	-40.435379
914.214783	1588.999268	7558.968262	-65.274651
914.595154	1550.845337	7558.968262	-67.759201
914.975464	1588.999268	7626.298828	34.019489
915.355652	1537.379272	7819.312988	-0.714451
915.735840	1591.243652	7648.742188	-37.951992
916.115845	1571.044434	7936.019043	-10.642067
916.495972	1550.845337	7882.154297	38.979897
916.875854	1588.999268	7947.240723	58.816990
917.255859	1586.754883	8088.634766	-28.019629
917.635620	1588.999268	7817.068359	11.692924
918.015503	1606.954102	7900.109375	-32.985664
918.395203	1541.867920	7951.729492	53.858368
918.774902	1609.198364	8131.277344	-30.502596
919.154480	1521.668823	8016.815430	-70.243721
919.534058	1573.288818	7918.063965	-0.714451
919.913574	1580.021851	7953.973633	14.174114
920.292969	1564.311401	7776.669922	4.248866
920.672363	1544.112305	7870.932617	4.248866
921.051636	1546.356567	7884.398926	-70.243721
921.430969	1550.845337	7765.448242	-50.369846
921.810181	1532.890503	7689.140625	-60.306007
922.189331	1521.668823	7576.922852	-55.337650
922.568420	1633.886230	7662.208496	-32.985664
922.947388	1532.890503	7500.615234	-52.853626
923.326416	1523.913086	7527.547363	-23.054144
923.705261	1667.551514	7356.977051	29.058800
924.084106	1541.867920	7347.999512	-35.468845
924.462891	1474.537476	7240.270508	-13.124300
924.841675	1571.044434	7029.301758	1.767260
925.220337	1566.555786	7235.781738	-35.468845
925.598938	1546.356567	7051.745117	16.655066
925.977478	1593.487915	6831.799316	4.248866
926.355957	1535.134888	6831.799316	-23.054144
926.734436	1530.646240	6834.043457	-18.089081
927.112732	1488.003540	6676.938965	-127.419403
927.491089	1514.935791	6663.472656	-28.019629
927.869324	1597.976685	6535.544922	-13.124300
928.247559	1586.754883	6611.853027	-62.790207
928.625671	1588.999268	6342.530762	-20.571491
929.003723	1580.021851	6281.933594	-3.196131
929.381775	1508.202637	6198.892578	-32.985664
929.759705	1530.646240	6228.069336	-23.054144
930.137634	1580.021851	6145.028320	-105.039536
930.515381	1541.867920	6124.829102	-10.642067
930.893250	1593.487915	5815.108887	-15.606638
931.270935	1595.732300	5911.615723	16.655066
931.648560	1557.578369	5649.026855	19.136045
932.026123	1530.646240	5601.895508	29.058800
932.403687	1514.935791	5595.162598	-47.886040
932.781250	1629.397583	5530.076660	41.459812
933.158630	1559.822754	5507.632813	38.979897
933.536011	1593.487915	5399.904297	-57.821774
933.913208	1577.777466	5289.931152	48.899338
934.290527	1591.243652	5227.089355	-30.502596
934.667664	1577.777466	5222.600586	6.730368
935.044800	1474.537476	4948.790039	-42.918873
935.421814	1597.976685	4854.527344	-32.985664
935.798889	1541.867920	4654.780273	-52.853626
936.175842	1535.134888	4596.427246	-23.054144
936.552673	1595.732300	4481.965332	-3.196131
936.929504	1566.555786	4329.349609	-10.642067
937.306274	1557.578369	4304.661621	-77.698326
937.683044	1571.044434	4212.643555	-67.759201
938.059570	1530.646240	4098.181641	46.419598
938.436218	1544.112305	3941.077148	-42.918873
938.812744	1577.777466	3911.900635	36.499744
939.189148	1564.311401	3759.284912	-95.095856
939.565613	1530.646240	3665.022217	-8.160073
939.941956	1519.424438	3552.804932	-45.402336
940.318237	1510.447021	3537.094482	-18.089081
940.694458	1571.044434	3492.207520	-5.678050
941.070557	1651.841064	3402.433350	-37.951992
941.446655	1537.379272	3431.610107	9.211631
941.822693	1535.134888	3263.283691	24.097698
942.198669	1584.510620	3263.283691	-5.678050
942.574646	1620.420166	3278.994141	-40.435379
942.950562	1559.822754	3209.419434	-52.853626
943.326294	1514.935791	3124.134033	1.767260
943.702026	1582.266235	3303.682129	-55.337650
944.077698	1535.134888	3227.374268	-3.196131
944.453369	1535.134888	3061.292480	-40.435379
944.828918	1541.867920	3139.844482	-35.468845
945.204468	1541.867920	3110.667969	-40.435379
945.579834	1573.288818	3202.686279	-30.502596
945.955261	1564.311401	3088.224609	-40.435379
946.330627	1602.465332	3101.690674	56.337803
946.705811	1557.578369	3108.423584	-45.402336
947.081055	1566.555786	3160.043701	-119.958527
947.456177	1604.709717	3148.822021	-10.642067
947.831238	1606.954102	3283.482910	-3.196131
948.206238	1568.800171	3193.708984	-13.124300
948.581238	1580.021851	3258.795166	-10.642067
948.956116	1517.180054	3225.129883	-23.054144
949.330933	1555.333984	3189.220215	-23.054144
949.705811	1505.958374	3276.750000	-0.714451
950.080505	1548.600952	3294.704590	-110.012146
950.455139	1557.578369	3240.840332	9.211631
950.829773	1577.777466	3247.573242	-23.054144
951.204346	1546.356567	3395.700439	31.539263
951.578735	1550.845337	3323.881348	-0.714451
951.953186	1562.067017	3339.591553	66.254356
952.327515	1600.221069	3375.501221	34.019489
952.701843	1631.641846	3281.238525	-82.668457
953.076172	1620.420166	3377.745605	1.767260
953.450195	1548.600952	3501.184814	-42.918873
953.824341	1559.822754	3346.324707	-77.698326
954.198486	1548.600952	3420.388184	36.499744
954.572449	1564.311401	3514.650879	-42.918873
954.946350	1580.021851	3406.922119	38.979897
955.320251	1539.623535	3350.813477	-37.951992
955.694092	1591.243652	3436.098633	-3.196131
956.067871	1557.578369	3375.501221	56.337803
956.441589	1595.732300	3519.139648	-55.337650
956.815125	1537.379272	3507.917969	-32.985664
957.188721	1548.600952	3386.722900	-35.468845
957.562256	1624.908813	3494.451660	-55.337650
957.935730	1595.732300	3501.184814	-92.610138
958.309021	1564.311401	3642.578857	-42.918873
958.682373	1541.867920	3530.361328	4.248866
959.055664	1546.356567	3447.320313	-107.525787
959.428955	1523.913086	3472.008301	41.459812
959.802063	1604.709717	3532.605713	-55.337650
960.175110	1535.134888	3519.139648	-50.369846
960.548157	1611.442749	3400.189209	-0.714451
960.921143	1593.487915	3492.207520	-52.853626
961.294128	1562.067017	3564.026611	-13.124300
961.666809	1609.198364	3436.098633	-15.606638
962.039612	1591.243652	3496.696045	-42.918873
962.412415	1541.867920	3433.854248	24.097698
962.785095	1512.691406	3503.429199	81.126038
963.157715	1586.754883	3384.478760	-0.714451
963.530151	1593.487915	3550.560547	-75.213356
963.902649	1582.266235	3393.456055	-8.160073
964.275146	1532.890503	3532.605713	29.058800
964.647522	1544.112305	3422.632568	-15.606638
965.019714	1602.465332	3537.094482	-0.714451
965.392029	1600.221069	3485.474365	-8.160073
965.764160	1575.533203	3388.967285	-23.054144
966.136292	1593.487915	3454.053467	-45.402336
966.508423	1597.976685	3433.854248	-50.369846
966.880371	1559.822754	3346.324707	43.939758
967.252319	1530.646240	3514.650879	-35.468845
967.624207	1530.646240	3501.184814	-15.606638
967.996094	1597.976685	3420.388184	-77.698326
968.367737	1566.555786	3400.189209	43.939758
968.739441	1445.360962	3319.392578	14.174114
969.111084	1595.732300	3400.189209	-55.337650
969.482666	1562.067017	3274.505615	-15.606638
969.854248	1562.067017	3328.369873	31.539263
970.225586	1573.288818	3400.189209	-18.089081
970.596985	1544.112305	3436.098633	-10.642067
970.968323	1544.112305	3312.659424	-30.502596
971.339661	1519.424438	3346.324707	-102.553520
971.710754	1537.379272	3350.813477	-52.853626
972.081909	1535.134888	3326.125488	-3.196131
972.453064	1566.555786	3400.189209	31.539263
972.824097	1521.668823	3305.926514	9.211631
973.194946	1557.578369	3382.234375	-30.502596
973.565918	1539.623535	3373.256836	-8.160073
973.936768	1546.356567	3393.456055	-18.089081
974.307556	1613.687134	3220.641113	19.136045
974.678284	1476.781860	3213.908203	-5.678050
975.048828	1553.089722	3204.930664	38.979897
975.419495	1591.243652	3294.704590	14.174114
975.790039	1586.754883	3236.351563	-70.243721
976.160522	1512.691406	3258.795166	1.767260
976.530884	1517.180054	3243.084717	-10.642067
976.901245	1544.112305	3198.197754	11.692924
977.271606	1519.424438	3189.220215	-3.196131
977.641846	1584.510620	3151.066406	-25.536900
978.012024	1514.935791	3148.822021	-32.985664
978.382019	1595.732300	3137.600342	-25.536900
978.752136	1541.867920	3180.242920	6.730368
979.122131	1566.555786	3276.750000	11.692924
979.492065	1568.800171	3151.066406	26.578234
979.861877	1582.266235	3151.066406	-37.951992
980.231689	1544.112305	3094.957520	19.136045
980.601440	1593.487915	3166.776855	-32.985664
980.971191	1597.976685	3148.822021	-50.369846
981.340820	1564.311401	3103.935059	56.337803
981.710266	1557.578369	2984.984375	-3.196131
982.079773	1562.067017	3072.514160	-50.369846
982.449280	1483.514893	3032.115723	-62.790207
982.818604	1548.600952	3018.649658	-75.213356
983.187866	1555.333984	3036.604492	-50.369846
983.557129	1564.311401	3020.894043	-112.498474
983.926331	1606.954102	2955.807861	-55.337650
984.295471	1595.732300	3054.559326	16.655066
984.664612	1537.379272	2989.473145	-65.274651
985.033569	1627.153198	2915.409668	-5.678050
985.402527	1539.623535	2946.830566	-8.160073
985.771362	1633.886230	2958.052246	16.655066
986.140259	1571.044434	2717.906982	11.692924
986.508911	1649.596680	2946.830566	29.058800
986.877625	1559.822754	2899.699219	-28.019629
987.246277	1532.890503	2949.074951	-65.274651
987.614929	1470.048706	2852.567871	-50.369846
987.983459	1577.777466	2807.680908	4.248866
988.351807	1568.800171	2803.192139	-40.435379
988.720215	1508.202637	2886.233154	93.516251
989.088623	1604.709717	2879.500000	-90.124527
989.456909	1602.465332	2872.767090	-18.089081
989.825012	1517.180054	2762.793945	26.578234
990.193115	1559.822754	2843.590576	-28.019629
990.561279	1530.646240	2767.282715	-67.759201
990.929321	1526.157471	2765.038330	14.174114
991.297302	1562.067017	2704.440918	-47.886040
991.665100	1586.754883	2756.060791	-35.468845
992.033020	1562.067017	2787.481689	-77.698326
992.400818	1532.890503	2742.594727	-15.606638
992.768494	1577.777466	2863.789551	-40.435379
993.136047	1593.487915	2726.884277	-15.606638
993.503723	1537.379272	2729.128662	-105.039536
993.871277	1550.845337	2868.278320	4.248866
994.238770	1577.777466	2614.666748	-23.054144
994.606140	1559.822754	2679.752930	-28.019629
994.973450	1633.886230	2744.839111	-90.124527
995.340759	1555.333984	2704.440918	-8.160073
995.708008	1595.732300	2699.952148	-28.019629
996.075195	1566.555786	2668.531250	-13.124300
996.442200	1539.623535	2679.752930	-45.402336
996.809265	1575.533203	2614.666748	-62.790207
997.176270	1611.442749	2675.264404	-3.196131
997.543152	1573.288818	2563.046875	34.019489
997.910095	1562.067017	2623.644287	-60.306007
998.276733	1597.976685	2641.599121	-37.951992
998.643494	1573.288818	2572.024170	-5.678050
999.010193	1595.732300	2639.354736	21.616924
999.376831	1586.754883	2536.114746	1.767260
999.743286	1548.600952	2572.024170	-52.853626
1000.109802	1530.646240	2547.336426	-15.606638
1000.476257	1564.311401	2511.426758	-18.089081
1000.842651	1580.021851	2569.779785	-10.642067
1001.208923	1584.510620	2529.381592	-80.183273
1001.575134	1519.424438	2408.186768	-8.160073
1001.941284	1595.732300	2509.182373	-13.124300
1002.307434	1526.157471	2482.250244	-35.468845
1002.673523	1537.379272	2473.272949	-75.213356
1003.039429	1584.510620	2446.340576	-8.160073
1003.405334	1618.175781	2468.784180	4.248866
1003.771179	1555.333984	2381.254639	41.459812
1004.137024	1582.266235	2482.250244	29.058800
1004.502808	1535.134888	2399.209229	-100.067482
1004.868408	1573.288818	2446.340576	-75.213356
1005.234009	1606.954102	2439.607666	14.174114
1005.599609	1566.555786	2412.675537	-52.853626
1005.965149	1546.356567	2374.521484	61.296215
1006.330444	1566.555786	2349.833740	-25.536900
1006.695862	1532.890503	2329.634521	-32.985664
1007.061218	1571.044434	2282.503174	-15.606638
1007.426453	1544.112305	2376.765869	-25.536900
1007.791626	1611.442749	2390.231934	-42.918873
1008.156677	1467.804443	2334.123291	95.994041
1008.521729	1586.754883	2367.788330	-65.274651
1008.886780	1546.356567	2340.856201	-97.581543
1009.251709	1564.311401	2316.168457	-0.714451
1009.616577	1593.487915	2300.458008	-35.468845
1009.981384	1622.664551	2291.480469	19.136045
1010.346130	1566.555786	2392.476318	-65.274651
1010.710754	1584.510620	2320.657227	-37.951992
1011.075439	1588.999268	2300.458008	29.058800
1011.439941	1539.623535	2325.145752	-15.606638
1011.804443	1555.333984	2327.390137	-70.243721
1012.168884	1651.841064	2313.924072	-30.502596
1012.533325	1532.890503	2282.503174	-45.402336
1012.897522	1519.424438	2239.860596	-47.886040
1013.261780	1530.646240	2170.285645	-45.402336
1013.626038	1562.067017	2260.059570	71.211952
1013.990112	1571.044434	2242.104980	6.730368
1014.354187	1548.600952	2159.063965	-45.402336
1014.718140	1602.465332	2177.018799	-47.886040
1015.082153	1573.288818	2208.439697	6.730368
1015.446045	1615.931396	2206.195313	-42.918873
1015.809937	1571.044434	2235.371826	-70.243721
1016.173523	1555.333984	2145.597900	-15.606638
1016.537170	1505.958374	2203.950928	-13.124300
1016.900879	1559.822754	2192.729248	-60.306007
1017.264404	1595.732300	2105.199707	-65.274651
1017.627991	1615.931396	2127.643066	46.419598
1017.991333	1575.533203	2145.597900	-32.985664
1018.354675	1564.311401	2127.643066	-25.536900
1018.718018	1539.623535	2114.177002	-92.610138
1019.081299	1494.736572	2116.421387	-107.525787
1019.444397	1591.243652	2127.643066	29.058800
1019.807495	1597.976685	2134.376221	-50.369846
1020.170593	1602.465332	2194.973633	-47.886040
1020.533691	1521.668823	2152.330811	-20.571491
1020.896606	1568.800171	2102.955322	1.767260
1021.259460	1580.021851	2098.466553	19.136045
1021.622253	1600.221069	2087.244873	-77.698326
1021.985046	1514.935791	2051.335205	-60.306007
1022.347778	1588.999268	2058.068359	6.730368
1022.710327	1535.134888	2203.950928	-15.606638
1023.072876	1609.198364	2010.936890	53.858368
1023.435364	1568.800171	2055.823975	-5.678050
1023.797852	1604.709717	2085.000488	-32.985664
1024.160278	1523.913086	2049.090820	-60.306007
1024.522461	1613.687134	2085.000488	21.616924
1024.884766	1591.243652	2125.398682	-57.821774
1025.246948	1636.130615	2071.534424	-37.951992
1025.609131	1571.044434	2127.643066	-30.502596
1025.971069	1566.555786	2046.846558	-129.906479
1026.333130	1611.442749	1984.004761	-72.728485
1026.694946	1588.999268	2015.425659	-13.124300
1027.056885	1620.420166	1939.117798	-15.606638
1027.418823	1622.664551	1999.715210	-55.337650
1027.780396	1514.935791	1995.226440	-5.678050
1028.142090	1568.800171	1957.072510	-8.160073
1028.503784	1562.067017	2001.959473	-50.369846
1028.865479	1557.578369	2017.669922	-42.918873
1029.226807	1602.465332	1907.696899	-57.821774
1029.588135	1546.356567	1959.316895	-119.958527
1029.949707	1546.356567	1939.117798	-45.402336
1030.310913	1593.487915	1918.918579	11.692924
1030.672241	1591.243652	1945.850830	-8.160073
1031.033325	1557.578369	1936.873413	26.578234
1031.394531	1604.709717	1923.407349	-42.918873
1031.755493	1514.935791	1932.384644	-95.095856
1032.116577	1514.935791	1907.696899	-62.790207
1032.477417	1544.112305	1880.764648	-28.019629
1032.838257	1514.935791	1988.493408	-60.306007
1033.199097	1546.356567	2004.203857	-50.369846
1033.559937	1611.442749	1957.072510	36.499744
1033.920654	1591.243652	1898.719482	-55.337650
1034.281128	1571.044434	1900.963867	-20.571491
1034.641724	1600.221069	1842.610718	-18.089081
1035.002197	1577.777466	1858.321167	-23.054144
1035.362671	1586.754883	1894.230713	46.419598
1035.722900	1564.311401	1847.099365	-62.790207
1036.083252	1593.487915	1898.719482	-57.821774
1036.443481	1602.465332	1853.832520	-42.918873
1036.803711	1566.555786	1811.189819	-18.089081
1037.163940	1532.890503	1833.633301	-10.642067
1037.523804	1517.180054	1858.321167	-10.642067
1037.883789	1597.976685	1822.411621	-57.821774
1038.243774	1586.754883	1838.122070	-10.642067
1038.603638	1550.845337	1889.742065	-72.728485
1038.963257	1535.134888	1856.076782	4.248866
1039.323120	1510.447021	1833.633301	-23.054144
1039.682861	1535.134888	1885.253418	-20.571491
>>>>>End Processed Spectral Data<<<<<
