188.301102 0.0
188.764923 0.0
189.228699 -45.187145
189.692459 -54.625504
190.156158 -43.200241
190.619812 -20.852888
191.083435 -27.804504
191.547043 -8.937668
192.01059 22.327868
192.474091 5.952565
192.937561 5.952565
193.401001 9.42662
193.86441 -3.973795
194.327759 29.769789
194.791077 7.938015
195.254349 50.601887
195.717575 -0.995752
196.180786 46.138519
196.643951 24.312634
197.107071 13.396679
197.570145 21.832003
198.033203 1.982275
198.496216 1.486105
198.959167 11.411682
199.422089 -3.477444
199.884979 5.952835
200.347855 -13.405795
200.810654 -0.499291
201.273422 -7.448503
201.73616 -34.26033
202.198853 -18.370464
202.661514 -46.180557
203.12413 -27.308086
203.5867 -39.226765
204.04924 -35.253559
204.511734 -30.784039
204.974197 -34.260468
205.436615 -67.54393
205.899002 -65.556267
206.361343 -36.246933
206.823654 -60.090763
207.285919 -26.811405
207.748123 -30.784174
208.210327 -26.81127
208.672485 -40.220074
209.134583 -65.059387
209.596649 -31.280619
210.05867 -60.09063
210.520676 -36.246933
210.982635 -58.103352
211.444534 -44.690311
211.906403 -72.513199
212.36824 -39.723553
212.830048 -40.220074
213.291779 -35.253559
213.753494 -24.825121
214.215179 -35.750175
214.676819 -20.356396
215.138412 -25.818321
215.59996 -10.923416
216.061493 -65.556267
216.522949 -52.141651
216.984406 -0.499291
217.445801 -13.40566
217.907166 -26.811539
218.368484 -27.804504
218.829773 -14.398534
219.291031 -34.756943
219.752228 -56.116001
220.213379 -33.266987
220.6745 -48.167564
221.135574 -27.307953
221.596634 -9.930601
222.057648 -12.412669
222.5186 -26.811405
222.979553 -16.384466
223.44043 -16.384466
223.901276 -35.750313
224.362076 -11.419829
224.822845 -18.370464
225.283569 -41.213535
225.744278 -23.335552
226.20491 -35.253559
226.665512 -41.710205
227.126114 -40.220074
227.586639 -4.470285
228.047119 -62.077976
228.507568 -27.307953
228.967972 -10.923416
229.428345 -62.574959
229.888687 -40.220207
230.348984 -37.736828
230.809219 -51.14814
231.26944 -35.750175
231.729614 -40.220074
232.189758 -34.756943
232.649841 -57.109737
233.109894 -53.632084
233.569901 -14.895111
234.029892 -18.370464
234.489822 -15.887875
234.949707 -6.952123
235.409561 -53.135181
235.869385 -63.071808
236.329163 -31.280619
236.788895 -16.384331
237.248581 -49.16103
237.708237 -53.135181
238.167847 -39.226898
238.627441 -28.79789
239.08696 -60.587593
239.546463 -50.15464
240.00592 -18.866941
240.465332 -14.895111
240.924698 -36.743427
241.384033 -29.294184
241.843338 -25.818321
242.302597 -30.784174
242.76181 -49.16103
243.220993 -73.010132
243.680115 -69.034767
244.139221 -20.852888
244.598282 -42.703556
245.057297 -21.846024
245.516266 -39.226898
245.975189 -36.743561
246.434082 -35.750175
246.892944 2.478576
247.351761 -31.77734
247.810516 -42.703556
248.269272 -18.370464
248.727951 -40.220074
249.1866 -49.161163
249.645218 -18.370329
250.10379 -28.30106
250.562317 -7.944887
251.020813 -21.846024
251.479279 -22.839039
251.937668 -49.16103
252.396057 -42.703556
252.854385 -35.253559
253.312683 -19.363422
253.77092 -51.14814
254.229126 -31.777205
254.687302 -39.723415
255.145432 -15.887875
255.6035 -43.200375
256.061584 -25.818321
256.519592 -57.606541
256.97757 -17.37739
257.435455 -33.266987
257.893372 -11.419965
258.351196 -33.763725
258.80899 7.44149
259.266754 -49.657764
259.724487 -37.736828
260.18219 -27.804504
260.639832 -36.246933
261.097443 -55.122559
261.554993 -11.916382
262.012512 -41.710205
262.469971 -23.832071
262.927429 -57.606403
263.384827 -11.916382
263.842194 -46.180557
264.29953 -29.790888
264.756805 -40.716869
265.21405 -28.797754
265.671234 -55.122425
266.128387 -70.028442
266.58551 -22.839039
267.042572 -32.27393
267.499573 -32.273796
267.956604 -27.307953
268.413574 -52.638412
268.870483 -43.69706
269.327362 -60.090763
269.78418 -43.69706
270.240936 -17.37739
270.697693 -47.670708
271.154419 -38.233471
271.611053 -60.090763
272.067688 -40.220074
272.524292 -44.193752
272.980835 -58.600029
273.437347 -27.308086
273.893799 -32.273796
274.35025 -25.321787
274.80661 -9.4342
275.262939 -36.743561
275.719238 -47.670841
276.175507 -52.638412
276.631714 -7.944887
277.087891 -14.894977
277.544067 -28.79789
278.000122 -1.492082
278.456177 -52.638412
278.912201 -38.730114
279.368164 -38.233471
279.824097 -57.109737
280.279968 -53.632084
280.73584 -16.384466
281.19162 -38.730114
281.6474 -58.103352
282.103149 -71.022415
282.558838 -67.047043
283.014465 -57.606674
283.470062 -19.859907
283.925629 -15.391559
284.381134 -40.716736
284.836639 -38.233471
285.292053 -53.632084
285.747467 -43.200375
286.20282 -61.581268
286.658142 -53.135181
287.113434 -59.096981
287.568634 -42.703693
288.023804 -18.370464
288.478973 -8.937668
288.934113 -48.167702
289.38913 -42.703693
289.844208 -44.690449
290.299164 -35.253559
290.754089 -13.902095
291.208984 -34.26033
291.663879 -16.880926
292.118683 -49.160892
292.573456 -11.916382
293.028198 -46.677406
293.482849 -32.770523
293.937561 -25.818321
294.392151 -51.14814
294.846741 -34.260468
295.301239 -47.670975
295.755737 -37.240192
296.210175 -18.866941
296.664581 -58.600163
297.118958 -7.945022
297.573242 -40.220207
298.027557 -55.122425
298.481812 -15.391559
298.935974 -5.95951
299.390137 -16.384466
299.844238 -34.756943
300.29834 -39.723553
300.75235 5.456428
301.20636 -2.981097
301.660278 -21.845888
302.114197 -40.716869
302.568054 -44.690449
303.021881 -5.959375
303.475677 -29.294184
303.929413 -51.14814
304.383118 -21.845888
304.836761 -57.109737
305.290375 -81.955986
305.743958 -15.391559
306.19751 -52.141651
306.65097 -57.109737
307.104431 -24.328594
307.5578 -47.174122
308.011169 -35.750175
308.464508 -44.193752
308.917755 -32.770523
309.371063 -26.811405
309.824219 -28.30106
310.277374 -12.412669
310.730499 -30.784039
311.183563 -40.716736
311.636597 15.877662
312.089569 18.854839
312.542511 9.923127
312.995422 15.381339
313.448273 -0.995752
313.901093 16.870296
314.353882 -14.398534
314.80658 -33.763725
315.259308 -39.723553
315.711975 -57.606403
316.164581 -31.777205
316.617126 -57.606541
317.069672 -32.27393
317.522156 -71.519203
317.974579 -15.391423
318.427002 -81.459106
318.879333 -47.670708
319.331665 -21.846024
319.783936 -35.253559
320.236176 -12.412669
320.688354 -24.328594
321.140503 -41.213535
321.592651 -23.832071
322.044647 -27.804504
322.496704 -13.902095
322.948639 -34.260468
323.400604 -34.756943
323.852509 -35.750313
324.304352 -17.37739
324.756165 -26.811405
325.207916 -16.384331
325.659668 -26.811539
326.111328 2.974873
326.562988 -15.391559
327.014557 -38.233471
327.466156 -15.887875
327.917664 -36.246933
328.36911 -22.838903
328.820557 -32.770523
329.271942 -16.384466
329.723297 -24.328594
330.174561 -24.328594
330.625854 -28.797621
331.077026 -16.880926
331.528229 -35.253559
331.97937 -3.477444
332.43045 -5.462872
332.8815 -10.923416
333.332489 -18.866941
333.783478 -13.902095
334.234406 3.4713
334.685303 0.493213
335.136078 -9.930736
335.586914 5.952835
336.037659 -27.804504
336.488342 -14.894977
336.939026 7.44149
337.389648 -13.902095
337.84024 -9.4342
338.290771 -16.384466
338.741272 -30.28746
339.191681 -36.743561
339.64212 0.989796
340.092468 -9.4342
340.542816 -22.838903
340.993103 -15.391559
341.443329 0.989526
341.893555 -17.37739
342.343689 -29.294319
342.793793 -17.873857
343.243866 -19.363422
343.693878 0.493213
344.14389 19.351133
344.593842 37.70665
345.043732 -3.477444
345.493591 1.486105
345.943359 -27.804504
346.393158 -0.00297
346.842896 -59.097115
347.292542 6.449102
347.742218 -10.923551
348.191803 0.493213
348.641357 -1.492082
349.090881 -23.832071
349.540314 12.90047
349.989777 15.381339
350.439148 -3.97393
350.888489 9.923127
351.337799 -13.902095
351.787048 -37.736828
352.236267 1.486105
352.685425 17.862509
353.134552 -13.40566
353.583649 17.366337
354.032684 -9.4342
354.481659 12.90047
354.930634 36.218483
355.379517 -9.4342
355.82843 -2.484755
356.277222 10.419092
356.726013 18.358946
357.174774 3.4713
357.623444 -1.988416
358.072113 31.754171
358.520721 -34.26033
358.969299 -3.973795
359.417786 19.847288
359.866302 -1.491947
360.314697 44.154617
360.763123 -4.966644
361.211456 2.974873
361.65976 32.746407
362.108032 -5.959375
362.556244 13.396679
363.004456 47.130512
363.452576 69.443787
363.900696 228.867966
364.348663 623.207275
364.796722 1226.017456
365.24469 1563.414063
365.692596 1654.07666
366.140472 1309.289551
366.588287 911.555603
367.036102 577.488098
367.483826 280.764526
367.931549 152.178696
368.379181 62.502754
368.826843 38.698647
369.274384 26.297195
369.721924 7.938015
370.169403 14.389219
370.616821 22.824133
371.06427 35.722466
371.511566 53.577328
371.958923 27.785477
372.406158 47.130512
372.853424 14.885147
373.300568 19.847288
373.747711 -8.441276
374.194794 4.463872
374.641846 -5.462872
375.088898 24.808746
375.535828 -4.470285
375.982758 6.449102
376.429596 8.930377
376.876465 6.945365
377.323242 21.831734
377.769989 11.907905
378.216675 -14.895111
378.66333 -0.499291
379.109985 0.989526
379.556519 18.854839
380.003052 17.366337
380.449524 58.040413
380.895996 32.746269
381.342377 49.609955
381.788727 -11.419965
382.235046 56.552483
382.681274 29.769789
383.127533 46.634449
383.573669 -13.405795
384.019836 -12.90923
384.465912 18.854839
384.911957 -8.937803
385.357971 3.967588
385.803925 5.952565
386.249847 17.366337
386.695679 27.289387
387.141541 5.456428
387.587311 5.456563
388.033051 8.434265
388.478729 -9.4342
388.924408 19.351
389.369995 -11.419965
389.815552 -13.902095
390.261078 12.404257
390.706543 -0.00297
391.152008 8.434265
391.597351 24.808746
392.042725 2.975143
392.487976 0.493213
392.933289 0.493213
393.378479 -9.930601
393.823639 -69.531395
394.268768 -5.959375
394.713837 -19.363422
395.158905 -6.455882
395.603851 -11.916382
396.048798 -37.736828
396.493683 2.975143
396.938568 -19.859907
397.383392 11.411682
397.828156 -37.240192
398.272888 -7.448503
398.71756 -28.301195
399.162201 -17.873857
399.606781 5.456428
400.051361 26.793295
400.495819 7.44149
400.940308 -3.477444
401.384705 23.816648
401.829102 9.42662
402.273438 15.381609
402.717682 19.847288
403.161926 88.279617
403.60611 586.831116
404.050293 1757.703491
404.494385 3555.548584
404.938446 4528.259766
405.382477 4110.296387
405.826447 2618.116455
406.270386 1408.026367
406.714233 676.751831
407.158081 407.607086
407.601868 451.966461
408.045624 480.537964
408.489319 433.733704
408.933014 295.58429
409.376617 149.207993
409.82019 75.392639
410.263702 31.754171
410.707184 30.265856
411.150635 24.808611
411.594025 24.312634
412.037384 -15.391559
412.480682 19.847288
412.923981 -7.448503
413.367126 12.90047
413.810333 11.908039
414.253479 13.396679
414.696533 14.389219
415.139587 -0.00297
415.582581 -1.988416
416.025543 6.449102
416.468414 -15.887875
416.911285 -2.981097
417.354065 6.945365
417.796875 32.746269
418.239594 -3.477444
418.682281 14.885417
419.124908 13.892884
419.567505 9.923127
420.010071 -4.966644
420.452545 0.989796
420.89502 -7.448638
421.337372 -28.30106
421.779785 22.824133
422.222107 -8.441276
422.664368 16.870026
423.106628 9.426889
423.548798 -24.825121
423.990967 -16.384466
424.433044 15.381339
424.875092 -17.37739
425.317078 32.746269
425.759064 5.456428
426.200989 27.289387
426.642853 25.304855
427.084686 36.714634
427.526459 24.808746
427.968201 11.411682
428.409912 -2.48489
428.851563 -45.683849
429.293121 21.335594
429.734711 5.456428
430.176239 -3.477444
430.617706 -3.973795
431.059113 -7.448503
431.500488 -8.441411
431.941833 -11.419829
432.383087 10.915457
432.824341 12.90047
433.265533 40.186886
433.706726 75.888329
434.147827 185.834747
434.588867 562.241699
435.029877 2074.072021
435.470825 5568.605957
435.911804 8335.915039
436.352661 9031.056641
436.793518 6652.20459
437.234283 4083.854492
437.675049 2419.050293
438.115723 1269.856323
438.556396 521.894714
438.99704 222.933975
439.437561 141.781006
439.878113 50.601887
440.318573 47.626434
440.759033 43.162846
441.199341 18.854975
441.639709 -0.995752
442.079956 14.388949
442.520264 24.312634
442.96051 20.839586
443.400604 -31.280619
443.840759 3.967588
444.280762 15.877527
444.720825 -16.880926
445.160767 -33.763725
445.600739 6.945365
446.040558 12.404121
446.480438 -5.463007
446.920258 19.847019
447.359955 34.234657
447.799713 4.463872
448.239319 2.478576
448.678955 12.90047
449.1185 8.434265
449.558014 46.634449
449.997498 28.281424
450.436951 -8.441411
450.876343 17.366337
451.315674 -1.988416
451.754974 -24.824986
452.194183 14.388949
452.633392 31.258114
453.07251 -31.777069
453.511688 9.922857
453.950684 -1.988416
454.38974 10.915457
454.828735 4.463872
455.267639 3.4713
455.706543 -16.880926
456.145325 12.90047
456.584137 -5.462872
457.022858 4.960153
457.461578 9.42662
457.900208 5.952835
458.338867 3.967588
458.777405 -30.28746
459.215912 30.761921
459.654388 -9.930736
460.092773 -17.873993
460.531189 -30.784039
460.969513 46.138519
461.407806 15.381609
461.846008 4.960288
462.284241 29.273581
462.722351 -6.455882
463.160461 -2.981232
463.598541 40.682865
464.03653 19.351
464.474518 24.312498
464.912384 0.989526
465.350281 8.930377
465.788086 7.44176
466.225891 12.90047
466.663605 40.682865
467.101318 19.847288
467.539001 58.040142
467.976563 39.194775
468.414124 18.358677
468.851593 8.930647
469.289063 20.839586
469.72644 15.381609
470.163849 12.90047
470.601135 10.915321
471.038422 -3.97393
471.475677 -1.492082
471.912811 27.785477
472.350006 17.862509
472.787048 35.226444
473.224121 55.560917
473.661072 45.146645
474.098053 30.265856
474.534943 37.210644
474.971802 2.975143
475.40863 11.411682
475.845367 48.122356
476.282104 27.785477
476.71875 27.785477
477.155426 54.073334
477.591949 57.54417
478.028503 44.650566
478.464966 75.888329
478.901428 89.270645
479.33786 124.943176
479.77417 111.07312
480.21051 155.644302
480.646698 174.453293
481.082947 201.171936
481.519073 296.572113
481.9552 335.579865
482.391266 457.386322
482.827301 602.07196
483.263306 770.965576
483.699188 931.127258
484.135101 1186.540039
484.570923 1452.246582
485.006744 1676.362549
485.442413 1966.495728
485.878174 2274.391846
486.313782 2601.82373
486.74939 2812.451416
487.184998 2951.017822
487.620453 2991.593994
488.055939 2962.953857
488.491333 2847.351074
488.926727 2739.263916
489.36203 2574.982422
489.797302 2413.767822
490.232513 2254.187744
490.667755 2169.955078
491.102905 2158.878906
491.537964 2129.494629
491.973022 2011.858521
492.40799 1919.17688
492.842957 1839.930054
493.277832 1714.13855
493.712738 1568.265015
494.147491 1496.441162
494.582275 1435.727417
495.017029 1344.810791
495.45166 1255.246094
495.886292 1211.88562
496.320831 1183.61499
496.755402 1090.438721
497.18985 1041.607788
497.624298 971.233215
498.058655 939.444092
498.493042 858.194336
498.927368 832.722839
499.361572 695.408508
499.795807 688.044739
500.229919 648.265503
500.664063 548.959595
501.098083 536.166443
501.532104 464.776154
501.966064 427.325958
502.399994 384.922211
502.833893 331.137177
503.2677 297.559784
503.701477 304.968323
504.135193 260.999573
504.568909 240.239502
505.002502 199.68779
505.436127 190.287811
505.869629 154.159042
506.303162 141.781006
506.736603 151.188568
507.169983 136.829208
507.603363 162.574356
508.036621 94.722145
508.46994 127.914803
508.903107 93.730934
509.336304 121.475822
509.769379 89.766487
510.202484 118.999084
510.635529 113.550049
511.068481 85.305908
511.501434 83.323441
511.934265 71.426712
512.367126 63.494209
512.799927 71.922432
513.232605 79.853821
513.665344 78.862381
514.097961 96.704369
514.530579 67.460655
514.963135 46.634449
515.395691 16.373846
515.828064 43.658669
516.260498 27.785477
516.692871 46.138519
517.125183 50.106129
517.557373 59.031937
517.989624 57.048328
518.421753 54.568928
518.853943 46.634449
519.286072 62.998417
519.718018 65.973373
520.150024 10.915457
520.581909 51.097782
521.013855 45.146645
521.445679 15.877662
521.877502 36.218754
522.309204 18.854975
522.740906 21.832003
523.172546 68.452034
523.604187 5.456563
524.035767 29.273851
524.467224 55.06506
524.898682 35.226711
525.330078 37.210644
525.761475 24.312498
526.192749 21.832003
526.624023 26.793295
527.055237 56.056637
527.486389 64.981689
527.917542 64.981689
528.348572 34.730553
528.779663 73.905418
529.210571 73.905418
529.641541 69.939392
530.072388 87.288307
530.503235 101.659447
530.934082 107.10955
531.364746 129.400696
531.795532 133.85788
532.226135 175.442917
532.656738 314.3508
533.08728 463.298187
533.517822 573.061829
533.948242 612.886353
534.378662 588.798096
534.809082 530.753418
535.239319 547.483521
535.669617 601.08905
536.099792 667.421326
536.529968 799.400757
536.960083 1055.283813
537.390137 1334.594116
537.82019 1624.998413
538.250183 1959.255005
538.680115 2243.121826
539.109985 2648.298584
539.539795 3230.890625
539.969543 4116.433594
540.399292 5494.000488
540.828979 7506.424316
541.258606 10143.90625
541.688171 12614.777344
542.117737 14003.269531
542.547302 13909.348633
542.976685 13221.675781
543.406128 12680.871094
543.835388 12274.62793
544.264771 12142.132813
544.69397 11812.689453
545.12323 12797.037109
545.552307 18584.892578
545.981506 24499.128906
546.410583 27855.994141
546.839539 24107.335938
547.268555 18324.316406
547.697449 15306.918945
548.126282 13502.384766
548.555054 11575.464844
548.983887 9671.703125
549.412598 8160.657227
549.841309 6795.356445
550.269958 5893.530273
550.698486 5192.773926
551.127075 4577.163086
551.555481 4005.437744
551.983948 3477.212158
552.412292 3084.140625
552.840698 2722.514404
553.26886 2434.415771
553.697205 2149.727539
554.125366 1896.473877
554.553467 1644.384888
554.981628 1398.790649
555.409607 1227.96582
555.837646 1089.462402
556.265564 946.781189
556.693481 861.132874
557.121338 779.30127
557.549133 652.195251
557.976929 616.326843
558.404602 550.435303
558.832275 483.000458
559.259888 507.619934
559.687439 435.212067
560.114929 391.334076
560.542419 364.696594
560.969788 347.425476
561.397156 367.656769
561.824524 306.449677
562.25177 302.498688
562.679016 272.365051
563.10614 304.968323
563.533264 307.931274
563.960327 284.716766
564.387329 241.722656
564.814331 263.9646
565.241272 243.205521
565.668213 227.878815
566.094971 190.782562
566.52179 209.58078
566.948425 254.574554
567.375183 184.845169
567.801819 221.450638
568.228394 193.256256
568.654846 225.901108
569.081421 228.867966
569.507874 193.256256
569.934265 169.00885
570.360596 181.876053
570.786865 130.886276
571.213074 130.886551
571.639282 126.428871
572.06543 103.145981
572.491516 126.429138
572.917603 104.632484
573.343567 95.713333
573.769531 132.372101
574.195435 128.905441
574.621277 153.663727
575.047119 167.524063
575.472839 180.886398
575.89856 306.449951
576.324158 994.698975
576.749817 2154.0625
577.175293 2876.981201
577.60083 2806.235352
578.026306 2030.189575
578.451721 2230.129639
578.877136 3012.591309
579.302429 3588.289551
579.727661 3584.494629
580.152832 2965.818359
580.578064 2746.92041
581.003113 2546.694336
581.428223 2402.72168
581.853271 2265.733398
582.278198 2330.168213
582.703125 2455.53833
583.12793 2492.011963
583.552795 2569.22998
583.977539 2538.0625
584.402283 2603.740723
584.826965 2543.337891
585.251587 2455.53833
585.676208 2424.8125
586.100647 2400.800781
586.525208 2675.597412
586.949524 3409.747559
587.373962 4081.493652
587.798218 4251.836426
588.222534 3569.7854
588.646729 3039.785889
589.070984 2562.517822
589.495117 2202.214111
589.919128 2063.464844
590.343201 1882.945557
590.767151 1817.205444
591.191101 1876.66394
591.61499 1970.357178
592.038818 2171.881836
592.462524 2663.14624
592.886292 3168.500732
593.310059 3539.88623
593.733582 3485.285889
594.157227 3067.450684
594.58075 2670.330078
595.004272 2209.916016
595.427673 1977.597534
595.851074 1785.766968
596.274353 1639.054077
596.697632 1531.390503
597.120911 1417.747314
597.544067 1368.157715
597.967224 1395.873657
598.39032 1619.666016
598.813354 1881.012939
599.236328 2141.056885
599.659241 2272.94873
600.082153 2303.246338
600.505005 2107.811279
600.927795 1960.703491
601.350525 1748.508179
601.773254 1544.007446
602.195862 1341.405396
602.618408 1188.002319
603.040955 1034.768677
603.46344 991.277344
603.885925 979.05603
604.30835 977.100464
604.730652 982.966919
605.152893 1024.020508
605.575195 1039.165649
605.997375 1123.137207
606.419495 1167.524902
606.841553 1343.351318
607.263672 1507.607422
607.685608 1721.400879
608.107605 1993.040527
608.52948 2455.53833
608.951294 3062.681641
609.373108 4136.730957
609.7948 5629.652832
610.216553 9015.626953
610.638123 15550.883789
611.059753 23818.695313
611.481262 30079.736328
611.902832 30643.714844
612.324219 26599.976563
612.745605 22281.337891
613.166931 19509.830078
613.588196 17499.705078
614.00946 15893.323242
614.430664 14221.839844
614.851807 12344.84082
615.272827 10657.253906
615.693909 8843.515625
616.114929 7340.629883
616.535889 6098.835938
616.956787 5116.527344
617.377563 4294.263184
617.79834 3673.179443
618.219055 3161.830566
618.639832 2741.177979
619.060364 2394.556641
619.481018 2215.210693
619.901611 1999.313965
620.322083 1997.866089
620.742493 2023.436401
621.162842 1957.806885
621.583191 1906.135376
622.003418 1922.074585
622.423706 1884.394897
622.843872 1963.599609
623.264038 2100.10083
623.684143 2129.494629
624.104126 2203.177002
624.52417 2185.364258
624.944031 2224.35498
625.364014 2220.98584
625.783752 2271.986572
626.203552 2263.328369
626.62323 2314.304443
627.042969 2306.130859
627.462585 2243.121826
627.882141 2157.434082
628.301697 2119.376953
628.72113 2095.28125
629.140625 2089.014893
629.559998 2142.984131
629.979309 2439.216797
630.39856 2932.39502
630.81781 3363.636963
631.237 3685.977539
631.656067 3435.408447
632.075195 2859.7771
632.494202 2316.708008
632.913208 1839.446655
633.332092 1522.655029
633.750977 1242.581665
634.169739 1005.940613
634.588562 859.663574
635.007263 699.335754
635.425964 566.176453
635.844543 508.604218
636.263123 476.597748
636.681641 423.382721
637.100037 420.918091
637.518494 365.189972
637.936829 356.801788
638.355164 322.744629
638.773438 330.643555
639.19165 279.28241
639.609863 259.516846
640.027893 293.60849
640.445984 248.643295
640.863953 275.329834
641.281921 234.306717
641.699829 261.987915
642.117676 260.011047
642.535461 257.045685
642.953247 254.080307
643.370972 282.740723
643.788635 288.174927
644.206177 281.258698
644.623718 277.306213
645.04126 304.474213
645.458618 259.516846
645.876099 257.539886
646.293396 272.859283
646.710693 262.97641
647.127991 240.733841
647.545166 246.665863
647.962341 275.823914
648.379333 268.41217
648.796448 275.823914
649.213379 328.175201
649.63031 401.19696
650.04718 567.1604
650.463989 787.145569
650.880859 856.725281
651.297546 789.106445
651.714233 707.680176
652.130859 607.970764
652.547485 576.996521
652.963928 587.322937
653.380432 555.354614
653.796814 499.250336
654.213196 458.371643
654.629578 382.949341
655.045837 303.980621
655.462036 328.175201
655.878174 302.992798
656.294312 293.60849
656.710327 285.210754
657.126404 216.999695
657.542358 287.186829
657.958252 256.551331
658.374084 255.068787
658.789917 220.461472
659.205688 252.597443
659.621338 199.1931
660.037048 209.086182
660.452637 142.771423
660.868164 209.58078
661.283691 220.461472
661.699158 238.261917
662.114502 364.203094
662.529846 472.164856
662.945129 498.265381
663.360413 449.010223
663.775635 395.7724
664.190674 317.807068
664.605835 277.80014
665.020813 265.447205
665.435791 253.586075
665.850769 218.977936
666.265625 168.019257
666.68042 202.161118
667.095215 161.089279
667.509949 176.432648
667.924622 117.513206
668.339233 148.712906
668.753784 149.207993
669.168335 139.800522
669.582825 122.466576
669.997192 82.331909
670.41156 126.924271
670.825867 105.623383
671.240173 116.522514
671.654358 76.879829
672.068481 95.217674
672.482605 127.41954
672.896667 106.118683
673.310669 139.305084
673.724609 87.784027
674.138489 96.208847
674.552307 89.270912
674.966064 60.023579
675.379822 114.540939
675.793579 61.015343
676.207153 60.519398
676.620789 25.304855
677.034241 90.757484
677.447754 80.34948
677.861206 73.409714
678.274597 92.244293
678.687866 92.244293
679.101135 121.475822
679.514404 92.244293
679.927551 97.695251
680.340698 120.485191
680.753723 137.324387
681.166748 152.673767
681.579712 115.036301
681.992615 97.199883
682.405457 102.154922
682.818298 64.981689
683.231018 88.279617
683.643738 114.540802
684.056335 72.418152
684.468994 69.939392
684.881531 118.008545
685.293945 104.632217
685.706482 136.829208
686.118774 142.276138
686.531128 173.463135
686.943481 260.011047
687.355713 305.462006
687.767883 362.229553
688.179932 379.003265
688.592041 358.775604
689.004089 304.474487
689.416016 274.835754
689.827881 221.450638
690.239868 195.235275
690.651611 166.039368
691.063354 117.01786
691.475098 76.879829
691.886719 91.748604
692.29834 65.973373
692.7099 75.888329
693.12146 159.604431
693.532837 215.0215
693.944214 262.97641
694.355652 232.328964
694.766846 163.564301
695.178101 153.663727
695.589294 130.886551
696.000366 93.235397
696.411438 91.748604
696.82251 84.314819
697.233459 50.106129
697.644409 51.097782
698.055298 40.186752
698.466064 31.754171
698.876831 21.335594
699.287537 37.70665
699.698181 43.162846
700.108826 19.351
700.519348 25.304855
700.92981 29.769789
701.340271 7.938015
701.750732 25.800961
702.161011 13.892884
702.57135 35.722736
702.981567 43.162846
703.391724 42.666615
703.80188 68.452301
704.211914 136.829208
704.621948 169.998825
705.031921 205.12912
705.441895 247.654572
705.851746 330.643555
706.261536 482.015533
706.671265 644.335266
707.081055 755.272095
707.490662 779.301025
707.90033 781.752441
708.309814 825.863892
708.719299 938.955017
709.128784 1033.79187
709.538147 950.694153
709.94751 812.633606
710.35675 638.439697
710.766052 510.573242
711.175171 513.034851
711.58429 629.103882
711.993347 736.631836
712.402405 802.341492
712.811401 769.984863
713.220276 615.834961
713.62915 492.356934
714.037964 379.003265
714.446777 282.246735
714.855408 209.58078
715.264099 164.554367
715.672668 95.217674
716.081177 98.191025
716.489746 75.392639
716.898132 18.358677
717.306519 50.105858
717.714844 30.265856
718.123108 0.493213
718.531372 37.210644
718.939514 -2.484619
719.347595 2.974873
719.755676 6.449102
720.163696 -4.470285
720.571716 -11.419829
720.979614 -23.335552
721.387451 -15.887875
721.795227 3.4713
722.202942 -0.995617
722.610718 -3.477444
723.018311 7.44149
723.425903 -25.321651
723.833374 -18.370329
724.240906 -4.966644
724.648376 -29.790888
725.055725 27.289387
725.463013 -26.314726
725.8703 -21.845888
726.277466 6.448832
726.684631 -8.441411
727.091797 -32.770523
727.498779 -23.335552
727.905823 -34.260468
728.312805 7.44149
728.719666 -19.860041
729.126526 -29.294319
729.533264 -8.441411
729.940063 -24.328594
730.34668 -21.845888
730.753357 -20.356531
731.159851 7.44176
731.566406 -53.632084
731.9729 -15.887875
732.379272 -10.923416
732.785645 -51.148003
733.191895 -6.952123
733.598206 -36.246933
734.004333 -8.441411
734.410522 -23.832071
734.816528 -2.981232
735.222656 -10.923281
735.628662 3.4713
736.034546 -6.455612
736.44043 -51.148003
736.846252 -48.664295
737.252014 -13.405525
737.657715 7.44149
738.063354 -22.342394
738.468933 -29.294319
738.874512 3.471165
739.280029 -36.246933
739.685486 -11.916382
740.090881 -22.839039
740.496216 -32.770523
740.90155 -33.266987
741.306702 -32.770523
741.711914 -14.895247
742.117004 -0.499291
742.522095 16.373846
742.927124 13.396679
743.332031 -24.328594
743.737 -12.909096
744.141785 2.974873
744.546631 33.242447
744.951355 -48.167702
745.356079 -12.909096
745.76062 -10.427007
746.165283 -14.895247
746.569824 6.449102
746.974243 8.930377
747.378723 -8.441411
747.78302 -44.690449
748.187378 2.478576
748.591614 -13.405525
748.99585 -53.135315
749.399963 -27.804504
749.804077 -32.27393
750.20813 -17.873993
750.612122 -35.750175
751.016052 -10.923281
751.419922 -16.880926
751.823792 -34.26033
752.227478 -28.301195
752.631226 -0.995887
753.034851 -16.880926
753.438477 -46.180691
753.842102 -14.894977
754.245544 2.975143
754.648987 -55.619213
755.052368 2.478576
755.45575 -1.988416
755.859009 -14.895111
756.262268 -60.09063
756.665405 -31.777205
757.068542 -46.180691
757.47168 -25.818321
757.874634 -21.349386
758.277588 -36.246933
758.68042 -40.220074
759.083374 -19.859772
759.486084 -60.587593
759.888916 -5.462872
760.291504 -56.116001
760.694214 -51.644756
761.096802 -44.690311
761.499268 -30.287327
761.901733 -37.240192
762.304199 -44.193752
762.706543 -50.15464
763.108826 -50.154507
763.511108 -28.797621
763.913208 -6.455882
764.315369 -11.916382
764.717529 -44.193752
765.119568 -14.398534
765.521545 -46.677406
765.923462 -19.859907
766.325317 -27.804504
766.727112 -52.141651
767.128845 -10.923551
767.530518 -9.930601
767.932251 -11.419965
768.333862 -39.226898
768.735413 -35.750175
769.136841 -12.909096
769.538269 -20.356531
769.939636 -38.233471
770.341003 -28.797621
770.742249 -2.484755
771.143433 -28.301195
771.544617 -40.220074
771.94574 -62.07811
772.346802 -29.294319
772.747803 -17.37739
773.148682 -21.349386
773.549622 -25.321787
773.950439 -45.187145
774.351196 -30.784039
774.751892 -49.657764
775.152588 -14.895111
775.553162 -44.193752
775.953735 -4.470285
776.354309 -15.391559
776.754639 -17.37739
777.15509 3.471165
777.55542 -38.233471
777.95575 -34.756943
778.355896 -45.683849
778.756104 -40.716736
779.156189 5.456428
779.556274 -28.30106
779.956299 -8.441411
780.356201 -11.916382
780.756165 -24.825121
781.156006 -37.240192
781.555786 -14.895111
781.955505 -26.314726
782.355225 -21.846024
782.754761 -29.294184
783.154358 -24.328594
783.553894 -19.363287
783.953369 -54.625504
784.352783 -24.328594
784.752075 -29.294319
785.151367 -61.084297
785.550598 1.486105
785.949768 -43.200375
786.348877 -31.280619
786.747986 -22.839039
787.147034 -15.887875
787.545959 -48.664295
787.944885 -42.703556
788.34375 -23.335552
788.742493 -49.657764
789.141235 -22.342529
789.539917 -19.859907
789.938538 -42.207016
790.337158 -10.923416
790.735718 -14.398398
791.134094 -37.240192
791.532532 -34.756943
791.930847 -34.756943
792.329224 -58.600163
792.727417 -62.574959
793.12561 -18.370464
793.523682 -41.213535
793.921753 -31.280619
794.319824 -51.148003
794.717773 -37.736828
795.115723 -46.677406
795.51355 -24.825121
795.911377 -45.683849
796.309082 -45.187283
796.706787 -59.096981
797.10437 -42.703693
797.501953 -54.625504
797.899536 -42.206879
798.296936 -36.743561
798.694397 -30.28746
799.091736 -55.619213
799.489014 -26.314726
799.88623 -17.873993
800.283447 -28.797621
800.680542 -31.77734
801.077637 -11.419829
801.47467 10.419227
801.871643 5.952835
802.268555 -41.213535
802.665405 -39.226898
803.062256 -35.750175
803.458923 -37.240192
803.855652 -33.763725
804.252258 -24.825254
804.648804 -6.952123
805.04541 -24.328594
805.441833 -59.096981
805.838257 -38.730114
806.234619 -54.625504
806.630859 -24.825254
807.0271 -52.638412
807.423279 -45.187145
807.819458 -20.356396
808.215515 -32.770523
808.611572 -16.880926
809.007507 -51.14814
809.403381 -8.937668
809.799194 -18.866941
810.195068 -45.187145
810.590759 -31.280619
810.98645 -17.37739
811.38208 4.960153
811.777649 -41.710205
812.173157 -29.294319
812.568665 -39.723415
812.96405 -45.187145
813.359375 -27.804504
813.754639 -51.644894
814.149841 -36.743427
814.545105 -14.895111
814.940186 -4.966644
815.335266 -22.838903
815.730347 -21.846024
816.125244 -25.321787
816.520203 -45.683849
816.914978 -27.804504
817.309753 3.4713
817.704468 -35.750175
818.099182 -17.37739
818.493774 -51.644894
818.888367 -14.398534
819.282898 -37.240192
819.677307 0.493483
820.071716 -4.470285
820.466003 -18.866941
820.860291 -21.349386
821.254517 -39.226765
821.648743 -27.804504
822.042786 -32.27393
822.43689 -19.363287
822.830872 -45.187283
823.224792 -18.866941
823.618774 -33.266987
824.012512 -39.226898
824.406311 -22.342394
824.799988 -35.750175
825.193665 -18.370329
825.58728 -22.839039
825.980835 -24.328594
826.374329 -39.226765
826.767761 -17.873857
827.161194 -40.220074
827.554443 -50.15464
827.947754 -39.226765
828.340942 -64.562386
828.734131 -36.246933
829.127136 -26.811539
829.520264 -15.391423
829.913208 -16.880791
830.306152 -43.696926
830.699097 -32.770523
831.091797 -33.763592
831.484619 -21.846024
831.877319 -10.923416
832.27002 -22.838903
832.662537 -27.308086
833.055054 -31.77734
833.44751 -29.790888
833.839966 -25.818321
834.232361 -0.995752
834.624634 -29.790752
835.016907 -31.280619
835.409058 -23.335552
835.801208 -39.226898
836.193298 -45.187145
836.585327 -34.260468
836.977295 -21.349386
837.369202 -22.342529
837.761047 -45.187145
838.152832 -45.187145
838.544617 -32.27393
838.936218 -43.200241
839.327942 -18.370464
839.719421 -12.412669
840.111023 -38.730114
840.50238 -7.448773
840.89386 -45.187145
841.285217 -25.321651
841.676453 -41.710205
842.067749 -77.482887
842.458862 -67.54393
842.849976 -31.280619
843.241028 -56.612938
843.632019 -8.441411
844.022949 -19.859907
844.413879 -10.923551
844.804749 -44.193752
845.195496 -49.657764
845.586182 -8.937803
845.976807 -35.750313
846.367432 -13.901959
846.757996 -43.200241
847.148499 -23.832071
847.538879 -46.677406
847.92926 -33.266987
848.319641 -7.945022
848.709839 -23.832071
849.100098 -22.342529
849.490234 -48.664295
849.88031 -63.071808
850.270325 -5.95924
850.660339 -27.307817
851.050171 -36.246799
851.440125 -24.328594
851.829895 -45.187145
852.219604 -7.448503
852.609314 -26.314726
852.998901 -19.363422
853.38855 -24.825121
853.778015 -34.756943
854.16748 -24.328594
854.556885 -8.441276
854.946228 -17.873993
855.335571 -58.103352
855.724731 -37.736965
856.113953 -15.391559
856.503052 -37.240192
856.892151 -30.784039
857.281067 -54.625641
857.670105 -60.587593
858.05896 -44.690449
858.447754 -64.562386
858.836609 -27.308086
859.225281 -9.930601
859.613892 -13.902095
860.002502 -27.804504
860.391052 -38.730114
860.779541 -22.342394
861.167969 -46.180691
861.556335 -31.280619
861.944702 -38.233471
862.332947 -44.193752
862.721069 -46.677406
863.109253 -24.328594
863.497314 -66.053139
863.885376 -46.180557
864.273315 -19.363422
864.661255 -12.90923
865.049072 -22.838903
865.43689 -41.213673
865.824707 -44.193752
866.21228 -1.988281
866.599915 -6.455747
866.987488 -31.280619
867.375061 -38.72998
867.762451 -24.328594
868.149841 -0.499291
868.53717 -25.818321
868.924438 0.989796
869.311707 -21.845888
869.698853 -1.988281
870.085938 -46.180557
870.472961 -4.47015
870.859985 -26.314726
871.246887 -52.638412
871.633789 -33.266987
872.020569 -17.873993
872.407349 -53.63195
872.794067 -51.14814
873.180725 -8.937803
873.567322 -10.427007
873.953796 -30.784039
874.340332 -30.784174
874.726624 -36.246933
875.113037 -32.27393
875.499329 -8.441411
875.885559 -25.818321
876.271729 -37.240192
876.657898 -63.568665
877.044006 -31.280619
877.429932 -13.405795
877.815918 -12.909096
878.201782 -32.273796
878.587585 -32.770523
878.973389 -26.81127
879.35907 -43.69706
879.744751 -20.852888
880.13031 -42.703693
880.51593 -56.116001
880.901367 -35.750175
881.286804 -38.730114
881.67218 -62.07811
882.057434 -20.852888
882.442749 -46.677406
882.827942 -19.859907
883.213013 -41.710205
883.598145 -59.096981
883.983154 -26.811405
884.368042 -41.710205
884.753052 -14.895247
885.137817 -9.930601
885.522644 -39.723415
885.907349 -46.180691
886.292053 -53.135315
886.676636 -32.27393
887.061157 -47.173988
887.44574 -4.47015
887.830078 -28.797621
888.214539 -14.398534
888.598816 -37.736828
888.983093 -23.335417
889.367249 -26.811405
889.751465 -48.664295
890.135498 -21.349386
890.519531 -33.267124
890.903503 -45.683849
891.287415 -41.710205
891.671326 -22.839039
892.055054 -30.287327
892.438843 -11.916382
892.82251 -50.651386
893.206116 -39.723415
893.589661 -65.059387
893.973206 -58.103352
894.356628 -56.116001
894.73999 -34.756943
895.123352 -40.220074
895.506592 -18.866941
895.889832 -29.790752
896.272949 -8.937803
896.656067 -24.825121
897.039063 -35.253559
897.422058 -27.804504
897.804993 -2.981232
898.187866 -36.246933
898.570618 -20.356531
898.953369 -15.391559
899.336121 -22.838903
899.718689 -14.894977
900.101257 -23.832071
900.483704 -22.342529
900.866211 -30.784039
901.248596 -24.825121
901.63092 -30.28746
902.013184 -63.568798
902.395386 -16.880926
902.777588 -45.187145
903.159668 -59.096981
903.541687 -43.69706
903.923645 -47.670975
904.305603 -8.441276
904.6875 -20.852888
905.069275 -14.398534
905.45105 -31.77734
905.832642 -51.645027
906.214294 -74.997925
906.595825 -20.852888
906.977417 -10.427007
907.358826 -11.419829
907.740234 -39.723415
908.121582 -21.349386
908.502869 -40.716869
908.884033 -29.790888
909.265198 -35.253559
909.646301 -60.090763
910.027344 -4.470285
910.408325 -37.736828
910.789246 -21.845888
911.170105 -10.427141
911.550903 -45.683987
911.931641 -50.651386
912.312317 -45.683987
912.692932 -71.022415
913.073547 -38.730114
913.453979 -17.37739
913.834473 -52.141651
914.214783 -2.981097
914.595154 -29.294319
914.975464 -9.930601
915.355652 -19.859907
915.73584 0.493213
916.115845 -49.16103
916.495972 -53.135044
916.875854 -30.28746
917.255859 -16.880926
917.63562 -30.287327
918.015503 -33.763725
918.395203 -49.657764
918.774902 -26.811539
919.15448 -8.937803
919.534058 -29.294184
919.913574 -15.88801
920.292969 -29.790752
920.672363 -55.619213
921.051636 -19.859907
921.430969 -28.30106
921.810181 -22.838903
922.189331 -22.342529
922.56842 -35.750175
922.947388 -25.321787
923.326416 -44.193752
923.705261 -54.128723
924.084106 -7.945022
924.462891 -52.638412
924.841675 -21.349386
925.220337 -29.294319
925.598938 -44.690582
925.977478 -67.047043
926.355957 -44.193752
926.734436 -34.756943
927.112732 -40.220074
927.491089 -26.314726
927.869324 -44.193752
928.247559 -78.973839
928.625671 -22.342529
929.003723 -19.859907
929.381775 -58.600163
929.759705 -13.902095
930.137634 -36.743427
930.515381 -60.587593
930.89325 -37.736828
931.270935 -26.314726
931.64856 -51.14814
932.026123 -45.187145
932.403687 -31.777205
932.78125 1.982545
933.15863 -49.161163
933.536011 -42.206879
933.913208 -10.923416
934.290527 -29.294319
934.667664 -43.200375
935.0448 -7.945022
935.421814 -25.818321
935.798889 -17.873993
936.175842 -36.246933
936.552673 -34.756943
936.929504 -14.895111
937.306274 -48.167564
937.683044 -47.173988
938.05957 -20.852888
938.436218 -14.398534
938.812744 -36.246799
939.189148 -51.14814
939.565613 -51.14814
939.941956 -29.294319
940.318237 -32.770523
940.694458 -38.730114
941.070557 -46.677406
941.446655 -5.463007
941.822693 -26.811539
942.198669 -72.016266
942.574646 -45.187145
942.950562 -61.581268
943.326294 -51.644894
943.702026 -31.777205
944.077698 -42.703693
944.453369 -34.26033
944.828918 -29.790752
945.204468 -10.427007
945.579834 -30.784039
945.955261 1.486105
946.330627 -23.832071
946.705811 -37.240192
947.081055 0.493213
947.456177 -59.593803
947.831238 -77.979866
948.206238 -31.280619
948.581238 -48.664295
948.956116 -28.797621
949.330933 -63.568665
949.705811 -26.314726
950.080505 -22.342529
950.455139 -34.756943
950.829773 -40.220074
951.204346 -19.859907
951.578735 -49.16103
951.953186 -15.391559
952.327515 -20.852888
952.701843 -34.260197
953.076172 -30.784039
953.450195 -33.763592
953.824341 -59.593941
954.198486 2.478846
954.572449 -66.053139
954.94635 -42.207016
955.320251 -70.028442
955.694092 -12.412669
956.067871 -30.287327
956.441589 -44.690449
956.815125 8.434265
957.188721 -16.384466
957.562256 -43.200241
957.93573 -35.253559
958.309021 -41.710205
958.682373 -40.220074
959.055664 -23.335552
959.428955 -70.028442
959.802063 -36.743561
960.17511 -52.638546
960.548157 -54.625778
960.921143 -4.966509
961.294128 -17.37739
961.666809 -33.763859
962.039612 -37.240192
962.412415 -26.811405
962.785095 -16.384466
963.157715 -38.730114
963.530151 -24.328594
963.902649 -30.287327
964.275146 -37.240059
964.647522 -7.944887
965.019714 41.178844
965.392029 -17.37739
965.76416 -20.356396
966.136292 -54.625778
966.508423 -48.167702
966.880371 -52.638275
967.252319 -41.213535
967.624207 -30.28746
967.996094 -55.122425
968.367737 -16.384466
968.739441 -49.16103
969.111084 -44.193619
969.482666 -29.790752
969.854248 -21.845888
970.225586 -16.88106
970.596985 -34.756943
970.968323 -39.723553
971.339661 -47.173988
971.710754 -26.314726
972.081909 -35.750175
972.453064 -40.220074
972.824097 -33.763592
973.194946 -34.756943
973.565918 -45.187145
973.936768 -51.644894
974.307556 -33.763592
974.678284 -14.895111
975.048828 -27.307953
975.419495 -64.065529
975.790039 -54.625504
976.160522 -31.777205
976.530884 -21.349386
976.901245 -41.213673
977.271606 -30.28746
977.641846 -42.206879
978.012024 -33.267124
978.382019 -32.770523
978.752136 -28.797621
979.122131 -33.266987
979.492065 -32.770523
979.861877 -46.180557
980.231689 -62.07811
980.60144 -6.455882
980.971191 -15.887875
981.34082 -8.441411
981.710266 -18.370464
982.079773 -38.233471
982.44928 -34.26033
982.818604 3.4713
983.187866 -23.832207
983.557129 -36.246933
983.926331 -46.677406
984.295471 -55.619213
984.664612 -16.384466
985.033569 -67.046906
985.402527 -39.723553
985.771362 -54.625641
986.140259 -36.743561
986.508911 -30.784039
986.877625 -42.703556
987.246277 -42.703556
987.614929 -10.427007
987.983459 -36.246799
988.351807 -26.314861
988.720215 -13.902095
989.088623 -46.677273
989.456909 -73.507072
989.825012 -56.612801
990.193115 -40.716736
990.561279 -58.600163
990.929321 -56.116001
991.297302 -17.873722
991.6651 -47.173988
992.03302 -25.321787
992.400818 -15.887875
992.768494 -41.213673
993.136047 -23.832071
993.503723 -30.783903
993.871277 -33.763592
994.23877 -61.581131
994.60614 -12.412669
994.97345 -24.825254
995.340759 -26.811405
995.708008 -43.69706
996.075195 -25.818321
996.4422 -40.220207
996.809265 -42.703556
997.17627 -51.644894
997.543152 -43.696926
997.910095 -47.173988
998.276733 -0.499291
998.643494 -51.14814
999.010193 -69.034767
999.376831 -34.260197
999.743286 -47.173988
1000.109802 -36.743561
1000.476257 -14.895111
1000.842651 -23.335417
1001.208923 -42.206879
1001.575134 -36.743561
1001.941284 -15.391559
1002.307434 -39.723553
1002.673523 -11.419965
1003.039429 -18.866941
1003.405334 -51.148003
1003.771179 -37.736694
1004.137024 -32.770523
1004.502808 -33.266987
1004.868408 -39.723415
1005.234009 -57.606541
1005.599609 -62.574959
1005.965149 -26.314726
1006.330444 -12.412669
1006.695862 -13.902095
1007.061218 -15.887875
1007.426453 -50.651253
1007.791626 3.967588
1008.156677 -61.581268
1008.521729 -27.308086
1008.88678 -17.37739
1009.251709 -33.763592
1009.616577 -18.866941
1009.981384 -31.777205
1010.34613 -18.370464
1010.710754 -10.923416
1011.075439 -65.556267
1011.439941 -38.730251
1011.804443 -55.122559
1012.168884 -60.090763
1012.533325 -34.756943
1012.897522 -29.790888
1013.26178 2.975143
1013.626038 -15.391423
1013.990112 -34.756943
1014.354187 -15.88801
1014.71814 -23.335552
1015.082153 -12.90923
1015.446045 -47.670708
1015.809937 -50.651386
1016.173523 -46.677406
1016.53717 -42.703693
1016.900879 -6.952123
1017.264404 -26.314861
1017.627991 -37.240192
1017.991333 -40.220207
1018.354675 -33.266987
1018.718018 -25.818321
1019.081299 -69.034767
1019.444397 -42.206879
1019.807495 -36.743561
1020.170593 -9.930736
1020.533691 -20.852888
1020.896606 -53.632084
1021.25946 -79.967957
1021.622253 -27.804504
1021.985046 -21.349386
1022.347778 -2.484619
1022.710327 -50.15464
1023.072876 -37.736828
1023.435364 -21.846024
1023.797852 -23.832071
1024.160278 1.982275
1024.522461 -55.122559
1024.884766 -14.398534
1025.246948 -24.825121
1025.609131 -56.612801
1025.971069 -35.253559
1026.33313 -32.273796
1026.694946 3.967588
1027.056885 -48.167702
1027.418823 -21.846024
1027.780396 -14.894977
1028.14209 -15.391559
1028.503784 -40.716869
1028.865479 -16.880926
1029.226807 -53.135315
1029.588135 -54.625504
1029.949707 -39.226765
1030.310913 -55.619213
1030.672241 -37.240192
1031.033325 -16.384331
1031.394531 -77.483017
1031.755493 -47.173988
1032.116577 -36.246933
1032.477417 -40.220074
1032.838257 -32.273796
1033.199097 -16.3846
1033.559937 -27.307953
1033.920654 -62.07811
1034.281128 -50.154507
1034.641724 -44.690582
1035.002197 -50.651253
1035.362671 -61.581268
1035.7229 -50.651253
1036.083252 -38.72998
1036.443481 -47.670841
1036.803711 -37.240192
1037.16394 -37.24033
1037.523804 -34.26033
1037.883789 -30.28746
1038.243774 -44.690449
1038.603638 -40.716736
1038.963257 -21.846024
1039.32312 -25.818321
1039.682861 -74.997925
