188.301102 0.0
188.764923 0.0
189.228699 -102.176804
189.692459 -45.026127
190.156158 -50.490219
190.619812 -37.575966
191.083435 9.091248
191.547043 -22.677946
192.01059 -6.791208
192.474091 -0.834854
192.937561 11.076187
193.401001 18.519655
193.86441 39.355701
194.327759 17.03101
194.791077 7.106242
195.254349 28.938457
195.717575 35.8834
196.180786 27.946295
196.643951 10.580093
197.107071 -8.280492
197.570145 26.457886
198.033203 -10.76249
198.496216 15.046406
198.959167 13.557403
199.422089 -23.174458
199.884979 0.654242
200.347855 -4.309242
200.810654 -28.63678
201.273422 -12.7483
201.73616 -21.188297
202.198853 -26.153893
202.661514 -16.719849
203.12413 14.549807
203.5867 -13.741297
204.04924 -9.273145
204.511734 -6.791208
204.974197 -12.7483
205.436615 -56.948685
205.899002 -13.741162
206.361343 -59.929569
206.823654 -31.616222
207.285919 -23.671246
207.748123 -51.98061
208.210327 -39.065762
208.672485 -17.216446
209.134583 -47.509815
209.596649 -77.818893
210.05867 -53.470909
210.520676 -45.025993
210.982635 -55.954823
211.444534 13.557403
211.906403 -18.705858
212.36824 -46.019539
212.830048 -37.079063
213.291779 -37.079063
213.753494 -44.0326
214.215179 -23.670975
214.676819 -62.910606
215.138412 -49.993607
215.59996 -30.622923
216.061493 -25.160686
216.522949 -16.719849
216.984406 -17.712914
217.445801 -45.026127
217.907166 -45.522827
218.368484 -55.458164
218.829773 -39.065762
219.291031 -49.496597
219.752228 -25.160686
220.213379 -23.671246
220.6745 -31.119638
221.135574 -29.629776
221.596634 -31.119638
222.057648 -21.685068
222.5186 -38.072472
222.979553 -35.092701
223.44043 -25.160686
223.901276 5.121169
224.362076 -61.917042
224.822845 -15.230621
225.283569 -38.072472
225.744278 -44.0326
226.20491 3.632186
226.665512 -26.650434
227.126114 -10.266083
227.586639 -33.602737
228.047119 -41.549198
228.507568 -47.509815
228.967972 -26.153893
229.428345 -9.273145
229.888687 -33.106136
230.348984 -48.006538
230.809219 -78.812996
231.26944 -35.589317
231.729614 -60.426533
232.189758 -40.059067
232.649841 -29.629776
233.109894 -42.045734
233.569901 -20.691936
234.029892 -37.079063
234.489822 -62.910877
234.949707 -31.119503
235.409561 -49.496597
235.869385 8.098753
236.329163 -28.139952
236.788895 -41.549198
237.248581 -32.609406
237.708237 -25.160686
238.167847 -58.438972
238.627441 -54.464596
239.08696 -62.413891
239.546463 -7.287452
240.00592 -11.259172
240.465332 -45.026127
240.924698 -55.955093
241.384033 -18.209383
241.843338 -41.549198
242.302597 -5.302097
242.76181 -2.323718
243.220993 -41.549332
243.680115 -24.664156
244.139221 -44.529297
244.598282 -28.140223
245.057297 -17.216446
245.516266 -23.670975
245.975189 -45.522827
246.434082 -53.967682
246.892944 -22.181572
247.351761 -41.052528
247.810516 5.121169
248.269272 -22.181572
248.727951 -33.106003
249.1866 -55.458164
249.645218 -61.917042
250.10379 -12.25174
250.562317 -14.734176
251.020813 -20.195444
251.479279 -42.542679
251.937668 -40.555866
252.396057 -17.216311
252.854385 -39.066032
253.312683 -43.535912
253.77092 -48.999863
254.229126 -30.126347
254.687302 -48.006538
255.145432 -43.039089
255.6035 -30.126617
256.061584 -18.209383
256.519592 -43.535912
256.97757 -55.954823
257.435455 -43.03936
257.893372 -57.445351
258.351196 -33.602737
258.80899 -44.0326
259.266754 -53.967682
259.724487 -38.072472
260.18219 -41.052528
260.639832 -22.677946
261.097443 -21.188297
261.554993 -28.63678
262.012512 -9.273415
262.469971 -14.734176
262.927429 -20.691936
263.384827 -22.181572
263.842194 -39.562412
264.29953 -38.072472
264.756805 -32.112812
265.21405 -37.575966
265.671234 -34.596088
266.128387 -32.112812
266.58551 -49.496868
267.042572 -23.671246
267.499573 -21.188297
267.956604 -0.33826
268.413574 -0.834854
268.870483 -44.0326
269.327362 -30.126347
269.78418 3.632186
270.240936 -41.052528
270.697693 -66.388947
271.154419 -66.388947
271.611053 -54.464596
272.067688 -12.25174
272.524292 -38.569115
272.980835 -20.195444
273.437347 -18.209383
273.893799 -21.188297
274.35025 -32.112812
274.80661 -73.345978
275.262939 -23.670975
275.719238 -17.712914
276.175507 4.128338
276.631714 -21.188566
277.087891 -14.237735
277.544067 -39.562412
278.000122 -44.529297
278.456177 -55.954823
278.912201 -26.650434
279.368164 -36.085941
279.824097 -40.059067
280.279968 -14.237735
280.73584 -31.119503
281.19162 -70.364136
281.6474 -45.522827
282.103149 -22.677946
282.558838 -10.76249
283.014465 -15.230621
283.470062 -31.616222
283.925629 -31.119638
284.381134 -33.602737
284.836639 -19.698957
285.292053 -13.741162
285.747467 -26.153893
286.20282 -59.929569
286.658142 -68.873543
287.113434 -69.370445
287.568634 -20.691936
288.023804 1.150554
288.478973 -18.209383
288.934113 -42.046005
289.38913 -25.657221
289.844208 -54.464596
290.299164 -48.006538
290.754089 -54.961376
291.208984 -43.535912
291.663879 -45.026127
292.118683 -29.133345
292.573456 -36.582432
293.028198 -36.085941
293.482849 -56.948685
293.937561 -68.376373
294.392151 7.106242
294.846741 -19.202473
295.301239 -14.734176
295.755737 -37.575966
296.210175 -44.0326
296.664581 -5.798463
297.118958 -53.967682
297.573242 -48.503269
298.027557 -38.072472
298.481812 -48.503269
298.935974 -54.464596
299.390137 -36.582432
299.844238 -43.03936
300.29834 -51.98061
300.75235 -48.503269
301.20636 -31.119638
301.660278 -30.126347
302.114197 -80.303841
302.568054 -44.0326
303.021881 -50.986969
303.475677 -43.03936
303.929413 -16.719849
304.383118 -1.82738
304.836761 -44.529297
305.290375 -19.202473
305.743958 -28.140223
306.19751 -22.181572
306.65097 -28.63678
307.104431 -21.685068
307.5578 -36.582432
308.011169 -68.376373
308.464508 -50.490219
308.917755 -63.407726
309.371063 -48.999863
309.824219 -13.244729
310.277374 -33.106136
310.730499 -28.139952
311.183563 -14.237465
311.636597 -50.987236
312.089569 -18.705858
312.542511 19.511841
312.995422 -22.181572
313.448273 14.053741
313.901093 -40.555866
314.353882 -35.589046
314.80658 -20.691936
315.259308 -16.719849
315.711975 -29.133345
316.164581 14.549941
316.617126 -20.195444
317.069672 -52.97414
317.522156 -8.776749
317.974579 -51.483719
318.427002 -11.75532
318.879333 -16.720118
319.331665 -38.569115
319.783936 -30.623194
320.236176 -24.664156
320.688354 -37.575966
321.140503 -45.026127
321.592651 -31.616222
322.044647 -16.719849
322.496704 -27.643532
322.948639 -11.258903
323.400604 -38.569115
323.852509 -15.230621
324.304352 -32.112812
324.756165 -26.153893
325.207916 -30.623194
325.659668 -37.575966
326.111328 -46.019539
326.562988 -14.734176
327.014557 -31.119638
327.466156 -5.798463
327.917664 -46.516247
328.36911 -19.698957
328.820557 -30.622923
329.271942 -40.555866
329.723297 -23.670975
330.174561 -30.623194
330.625854 -31.119638
331.077026 -27.146982
331.528229 -40.059067
331.97937 -12.7483
332.43045 -20.195444
332.8815 -13.741162
333.332489 -31.119638
333.783478 -28.63678
334.234406 -65.892067
334.685303 -25.657221
335.136078 -58.438972
335.586914 -49.496597
336.037659 -55.458298
336.488342 -53.470909
336.939026 -37.575966
337.389648 -47.509815
337.84024 -23.174728
338.290771 -26.153759
338.741272 -17.712914
339.191681 -45.025993
339.64212 -20.691936
340.092468 9.091383
340.542816 -42.542679
340.993103 -27.643532
341.443329 5.617309
341.893555 -74.836952
342.343689 -30.622923
342.793793 -5.798463
343.243866 -41.052528
343.693878 -18.209383
344.14389 21.496567
344.593842 -8.776749
345.043732 -52.477375
345.493591 -3.812888
345.943359 -66.885826
346.393158 -38.569115
346.842896 -47.013096
347.292542 -37.079063
347.742218 -62.910606
348.191803 -39.065762
348.641357 -72.351967
349.090881 -47.509815
349.540314 -68.37664
349.989777 -37.079334
350.439148 -67.382713
350.888489 -25.160686
351.337799 -45.522827
351.787048 -30.623194
352.236267 -26.153759
352.685425 -63.407726
353.134552 -61.917042
353.583649 -45.522827
354.032684 -20.691936
354.481659 -19.698957
354.930634 -25.657221
355.379517 -29.629776
355.82843 -11.75532
356.277222 -24.664156
356.726013 -21.188566
357.174774 -21.188297
357.623444 -39.562412
358.072113 -14.734176
358.520721 -39.562412
358.969299 -31.119503
359.417786 1.646862
359.866302 -23.671246
360.314697 -62.910606
360.763123 -34.099342
361.211456 -12.25174
361.65976 -43.03936
362.108032 4.624621
362.556244 -1.331183
363.004456 -45.026127
363.452576 -54.464596
363.900696 -26.153893
364.348663 -17.712914
364.796722 0.654242
365.24469 20.007996
365.692596 39.851688
366.140472 28.938457
366.588287 -12.7483
367.036102 -40.555595
367.483826 -6.791208
367.931549 -3.316539
368.379181 -15.726936
368.826843 -43.535912
369.274384 -25.657221
369.721924 -21.685068
370.169403 -21.188297
370.616821 -42.542679
371.06427 -37.079063
371.511566 -43.03936
371.958923 -18.209383
372.406158 -56.948685
372.853424 -30.126347
373.300568 -60.426395
373.747711 -1.331183
374.194794 -25.657221
374.641846 -36.085941
375.088898 -28.139952
375.535828 -18.705858
375.982758 -29.133345
376.429596 -20.195444
376.876465 -65.89193
377.323242 -43.03936
377.769989 -41.052528
378.216675 -43.535912
378.66333 -61.420204
379.109985 -66.885826
379.556519 -24.664156
380.003052 -2.323718
380.449524 -32.112812
380.895996 -70.86132
381.342377 -29.133345
381.788727 -52.97414
382.235046 -48.006538
382.681274 -38.072334
383.127533 -11.258903
383.573669 -34.595951
384.019836 -10.266083
384.465912 -21.685068
384.911957 -51.98061
385.357971 -29.133345
385.803925 -24.167631
386.249847 -39.066032
386.695679 -16.720118
387.141541 -38.072472
387.587311 -49.993607
388.033051 -5.302097
388.478729 -31.616222
388.924408 -31.119638
389.369995 -39.065762
389.815552 -39.562546
390.261078 -16.22366
390.706543 -7.287452
391.152008 -35.589317
391.597351 2.1433
392.042725 -26.650434
392.487976 -43.03936
392.933289 -11.258903
393.378479 1.150554
393.823639 -28.636511
394.268768 -84.280258
394.713837 -4.8056
395.158905 -13.244729
395.603851 -34.595951
396.048798 -23.671246
396.493683 -41.052528
396.938568 13.557673
397.383392 20.007996
397.828156 -45.522694
398.272888 -23.174728
398.71756 -24.167631
399.162201 -19.202473
399.606781 -14.734176
400.051361 -19.698957
400.495819 10.580093
400.940308 -13.741162
401.384705 -1.331183
401.829102 -2.820059
402.273438 24.473461
402.717682 9.091383
403.161926 98.351524
403.60611 326.360718
404.050293 1137.443359
404.494385 2348.10791
404.938446 2817.387451
405.382477 2403.358154
405.826447 1360.047729
406.270386 772.105225
406.714233 386.068542
407.158081 297.226257
407.601868 362.389771
408.045624 423.542389
408.489319 367.816956
408.933014 268.572235
409.376617 157.289581
409.82019 157.784592
410.263702 169.169556
410.707184 143.922318
411.150635 154.814575
411.594025 114.206154
412.037384 158.77475
412.480682 172.633911
412.923981 198.858932
413.367126 231.005997
413.810333 222.105301
414.253479 237.927811
414.696533 261.654083
415.139587 236.44455
415.582581 316.979889
416.025543 306.609741
416.468414 324.385742
416.911285 346.10495
417.354065 361.895996
417.796875 347.092224
418.239594 402.34314
418.682281 394.946136
419.124908 426.993134
419.567505 451.140808
420.010071 468.384064
420.452545 508.271637
420.89502 557.482056
421.337372 536.326233
421.779785 570.270752
422.222107 620.417725
422.664368 620.417419
423.106628 649.898315
423.548798 706.857422
423.990967 669.545105
424.433044 745.621094
424.875092 699.00415
425.317078 756.903137
425.759064 781.911682
426.200989 792.206848
426.642853 821.612854
427.084686 813.772827
427.526459 889.689453
427.968201 878.918823
428.409912 964.546265
428.851563 960.144897
429.293121 971.880493
429.734711 1034.927246
430.176239 1028.576294
430.617706 1077.904297
431.059113 1067.650513
431.500488 1027.110596
431.941833 1108.655884
432.383087 1158.417114
432.824341 1223.738892
433.265533 1251.50769
433.706726 1333.292114
434.147827 1549.502197
434.588867 2030.345825
435.029877 4203.88623
435.470825 9933.620117
435.911804 13994.152344
436.352661 14123.736328
436.793518 9746.367188
437.234283 6494.698242
437.675049 4351.901367
438.115723 2963.585693
438.556396 2151.328857
438.99704 1778.182983
439.437561 1670.222656
439.878113 1588.307617
440.318573 1597.036255
440.759033 1604.309448
441.199341 1640.665161
441.639709 1663.924072
442.079956 1607.218506
442.520264 1627.578857
442.96051 1652.295654
443.400604 1692.988525
443.840759 1660.532593
444.280762 1735.596924
444.720825 1704.610962
445.160767 1742.857422
445.600739 1751.085327
446.040558 1789.793701
446.480438 1729.788208
446.920258 1814.944336
447.359955 1768.506226
447.799713 1816.87854
448.239319 1799.467773
448.678955 1826.549194
449.1185 1830.417236
449.558014 1794.147217
449.997498 1824.615234
450.436951 1800.435059
450.876343 1854.105713
451.315674 1876.820313
451.754974 1847.821899
452.194183 1867.638794
452.633392 1851.689087
453.07251 1851.689087
453.511688 1823.648682
453.950684 1860.389282
454.38974 1843.470825
454.828735 1847.821899
455.267639 1833.802002
455.706543 1822.681152
456.145325 1827.516479
456.584137 1805.271851
457.022858 1784.472412
457.461578 1769.473877
457.900208 1826.06604
458.338867 1780.601807
458.777405 1772.861084
459.215912 1774.796631
459.654388 1746.245483
460.092773 1747.697754
460.531189 1700.252686
460.969513 1739.468994
461.407806 1695.894165
461.846008 1758.344604
462.284241 1681.848145
462.722351 1673.613159
463.160461 1710.905884
463.598541 1713.327148
464.03653 1789.310059
464.474518 1744.793091
464.912384 1719.137085
465.350281 1705.095337
465.788086 1680.879761
466.225891 1697.831543
466.663605 1694.925049
467.101318 1704.126953
467.539001 1687.176147
467.976563 1755.924683
468.414124 1736.565063
468.851593 1671.190918
469.289063 1737.04895
469.72644 1766.086792
470.163849 1749.633301
470.601135 1754.956787
471.038422 1702.189697
471.475677 1713.811279
471.912811 1755.440918
472.350006 1766.571045
472.787048 1801.886475
473.224121 1765.603394
473.661072 1830.417725
474.098053 1767.054688
474.534943 1762.215576
474.971802 1785.923584
475.40863 1791.244629
475.845367 1776.731567
476.282104 1739.468994
476.71875 1774.796631
477.155426 1857.005981
477.591949 1833.802002
478.028503 1834.768921
478.464966 1827.999878
478.901428 1825.098511
479.33786 1888.417358
479.77417 1911.605225
480.21051 1914.02063
480.646698 1964.238647
481.082947 2093.991455
481.519073 2190.815918
481.9552 2257.230713
482.391266 2307.248291
482.827301 2563.153076
483.263306 2712.13916
483.699188 3038.987305
484.135101 3215.808105
484.570923 3559.499512
485.006744 3935.155518
485.442413 4246.331543
485.878174 4799.935059
486.313782 5147.089355
486.74939 5478.291992
487.184998 5617.224609
487.620453 5684.769043
488.055939 5549.176758
488.491333 5408.29834
488.926727 5259.307129
489.36203 5048.811523
489.797302 4781.165039
490.232513 4686.331543
490.667755 4437.132813
491.102905 4416.419922
491.537964 4394.76123
491.973022 4237.84375
492.40799 4043.861328
492.842957 3953.123535
493.277832 3832.019043
493.712738 3699.876221
494.147491 3500.635986
494.582275 3434.137207
495.017029 3264.366455
495.45166 3181.994141
495.886292 3160.079346
496.320831 3065.697266
496.755402 2908.668945
497.18985 2877.136475
497.624298 2770.518311
498.058655 2685.808105
498.493042 2577.05542
498.927368 2453.294189
499.361572 2430.730225
499.795807 2384.624512
500.229919 2309.171875
500.664063 2253.863037
501.098083 2159.034912
501.532104 2117.123535
501.966064 2065.067871
502.399994 2008.155151
502.833893 2030.345825
503.2677 1956.03186
503.701477 1988.371704
504.135193 1920.299438
504.568909 1913.53772
505.002502 1930.441528
505.436127 1917.401611
505.869629 1902.9104
506.303162 1941.547607
506.736603 1977.753784
507.169983 1967.13501
507.603363 1975.823486
508.036621 1990.301636
508.46994 2015.391479
508.903107 1988.371704
509.336304 2074.710205
509.769379 2035.651367
510.202484 2124.351563
510.635529 2088.207764
511.068481 2156.145264
511.501434 2151.328857
511.934265 2177.334961
512.367126 2158.553711
512.799927 2085.797363
513.232605 2128.687744
513.665344 2107.968018
514.097961 2192.260498
514.530579 2157.108398
514.963135 2126.27832
515.395691 2157.108398
515.828064 2124.833252
516.260498 2105.558594
516.692871 2085.31543
517.125183 2116.160156
517.557373 2070.853271
517.989624 2093.509766
518.421753 2014.909302
518.853943 1981.132568
519.286072 1969.548218
519.718018 1928.992432
520.150024 1900.012207
520.581909 1909.673462
521.013855 1871.021606
521.445679 1787.374634
521.877502 1799.467773
522.309204 1708.000977
522.740906 1680.395142
523.172546 1668.768921
523.604187 1658.110107
524.035767 1646.480347
524.467224 1575.212769
524.898682 1528.151245
525.330078 1552.413208
525.761475 1516.016602
526.192749 1451.432251
526.624023 1462.119263
527.055237 1454.347168
527.486389 1427.62439
527.917542 1432.483887
528.348572 1337.184814
528.779663 1387.766113
529.210571 1386.793701
529.641541 1333.778564
530.072388 1308.960815
530.503235 1328.426392
530.934082 1232.995972
531.364746 1281.213623
531.795532 1278.779053
532.226135 1294.845215
532.656738 1372.692627
533.08728 1455.804321
533.517822 1542.709351
533.948242 1566.967041
534.378662 1530.577393
534.809082 1482.517456
535.239319 1536.400635
535.669617 1624.670898
536.099792 1714.295166
536.529968 1895.664063
536.960083 2150.365479
537.390137 2562.193848
537.82019 2982.203369
538.250183 3379.00415
538.680115 3747.731445
539.109985 4326.932129
539.539795 5200.406738
539.969543 6483.131348
540.399292 8289.078125
540.828979 11091.202148
541.258606 14734.228516
541.688171 18330.142578
542.117737 20081.050781
542.547302 19903.339844
542.976685 19069.957031
543.406128 18212.970703
543.835388 17841.347656
544.264771 17486.291016
544.69397 17194.136719
545.12323 18523.822266
545.552307 27323.154297
545.981506 35773.898438
546.410583 39122.546875
546.839539 32323.984375
547.268555 24894.082031
547.697449 21236.039063
548.126282 18449.933594
548.555054 15971.474609
548.983887 13309.828125
549.412598 11376.924805
549.841309 9715.661133
550.269958 8440.924805
550.698486 7459.748535
551.127075 6563.147461
551.555481 5862.062988
551.983948 5131.650879
552.412292 4518.06543
552.840698 3933.736816
553.26886 3549.532471
553.697205 3146.738037
554.125366 2791.08667
554.553467 2448.013672
554.981628 2138.322998
555.409607 1864.739014
555.837646 1670.706909
556.265564 1507.764526
556.693481 1337.670898
557.121338 1278.292114
557.549133 1123.783081
557.976929 1047.138916
558.404602 972.369568
558.832275 911.224976
559.259888 850.026978
559.687439 802.990601
560.114929 731.394104
560.542419 709.802429
560.969788 687.221985
561.397156 657.757568
561.824524 613.045654
562.25177 601.739807
562.679016 550.102966
563.10614 571.254333
563.533264 559.449585
563.960327 476.26474
564.387329 515.655396
564.814331 475.772369
565.241272 429.950378
565.668213 392.973297
566.094971 411.217926
566.52179 392.973541
566.948425 391.000671
567.375183 314.01709
567.801819 353.507385
568.228394 384.095703
568.654846 332.284485
569.081421 333.271973
569.507874 316.486023
569.934265 279.936218
570.360596 280.430634
570.786865 265.113373
571.213074 274.501709
571.639282 256.711823
572.06543 262.148132
572.491516 241.388443
572.917603 251.76915
573.343567 233.972733
573.769531 248.803665
574.195435 244.848862
574.621277 271.043182
575.047119 315.992126
575.472839 296.238159
575.89856 491.039246
576.324158 1623.216431
576.749817 3435.562256
577.175293 4370.271484
577.60083 3905.833496
578.026306 2819.778564
578.451721 3491.138672
578.877136 4720.142578
579.302429 5407.365234
579.727661 4873.106934
580.152832 3638.72168
580.578064 3175.800781
581.003113 2872.835693
581.428223 2648.932617
581.853271 2572.26123
582.278198 2565.070557
582.703125 2813.562988
583.12793 2970.746582
583.552795 3221.998291
583.977539 3300.056641
584.402283 3316.231445
584.826965 3288.160889
585.251587 3116.712891
585.676208 3078.572998
586.100647 2971.224121
586.525208 3178.65918
586.949524 3627.814697
587.373962 3879.341553
587.798218 3848.584473
588.222534 3351.903076
588.646729 2919.655029
589.070984 2578.493652
589.495117 2341.37915
589.919128 2161.443115
590.343201 2038.063354
590.767151 1949.755737
591.191101 1909.190186
591.61499 2001.882324
592.038818 2115.196533
592.462524 2400.956299
592.886292 2720.754639
593.310059 2844.637939
593.733582 2755.209717
594.157227 2448.973877
594.58075 2092.063477
595.004272 1825.098511
595.427673 1640.180664
595.851074 1478.632324
596.274353 1384.848755
596.697632 1291.924194
597.120911 1201.321655
597.544067 1216.916992
597.967224 1209.119751
598.39032 1346.914795
598.813354 1528.636475
599.236328 1619.338257
599.659241 1703.157959
600.082153 1676.519897
600.505005 1563.571289
600.927795 1417.418823
601.350525 1247.123535
601.773254 1129.150269
602.195862 1019.781494
602.618408 903.394409
603.040955 829.452148
603.46344 761.807068
603.885925 752.488342
604.30835 775.537842
604.730652 755.921997
605.152893 774.556946
605.575195 815.242737
605.997375 812.792419
606.419495 912.692871
606.841553 1021.247437
607.263672 1112.072021
607.685608 1317.234497
608.107605 1505.822876
608.52948 1811.558594
608.951294 2350.510742
609.373108 3033.262451
609.7948 4199.641113
610.216553 6552.975098
610.638123 11278.609375
611.059753 16908.03125
611.481262 20718.734375
611.902832 20315.296875
612.324219 17770.078125
612.745605 14961.899414
613.166931 13247.916992
613.588196 11844.915039
614.00946 10619.699219
614.430664 9439.017578
614.851807 8448.217773
615.272827 7382.132813
615.693909 6233.039551
616.114929 5220.978027
616.535889 4440.897949
616.956787 3782.306885
617.377563 3271.505371
617.79834 2867.579346
618.219055 2537.258545
618.639832 2352.432617
619.060364 2160.96167
619.481018 2109.895264
619.901611 2066.031738
620.322083 2063.621094
620.742493 2120.014648
621.162842 2177.334961
621.583191 2133.505127
622.003418 2053.977783
622.423706 2118.56958
622.843872 2180.705078
623.264038 2214.884766
623.684143 2237.022705
624.104126 2280.319092
624.52417 2287.052246
624.944031 2291.861328
625.364014 2348.588379
625.783752 2331.285645
626.203552 2281.28125
626.62323 2202.370361
627.042969 2089.653564
627.462585 1996.575317
627.882141 1943.479492
628.301697 1790.761108
628.72113 1797.049316
629.140625 1715.264038
629.559998 1749.633301
629.979309 1949.273071
630.39856 2242.315674
630.81781 2558.358398
631.237 2710.224854
631.656067 2460.494141
632.075195 1998.505005
632.494202 1607.703613
632.913208 1395.05896
633.332092 1112.072021
633.750977 884.304382
634.169739 752.488586
634.588562 620.909058
635.007263 495.963318
635.425964 481.682556
635.844543 435.37207
636.263123 378.669647
636.681641 340.675903
637.100037 318.460968
637.518494 318.95459
637.936829 298.708069
638.355164 253.25177
638.773438 280.924805
639.19165 270.054718
639.609863 231.500275
640.027893 211.719742
640.445984 227.050461
640.863953 256.711823
641.281921 200.342819
641.699829 215.181824
642.117676 219.138123
642.535461 183.521164
642.953247 231.500275
643.370972 257.700256
643.788635 236.939072
644.206177 257.206177
644.623718 247.320663
645.04126 239.905258
645.458618 254.734909
645.876099 242.871582
646.293396 243.860245
646.710693 220.62178
647.127991 248.803391
647.545166 233.972733
647.962341 250.780624
648.379333 251.274887
648.796448 264.61911
649.213379 315.498779
649.63031 384.095703
650.04718 491.039246
650.463989 613.04541
650.880859 660.704712
651.297546 644.985962
651.714233 547.643005
652.130859 519.100952
652.547485 465.428284
652.963928 515.655396
653.380432 450.155396
653.796814 431.429077
654.213196 406.780823
654.629578 345.117889
655.045837 292.28653
655.462036 281.418701
655.878174 292.780609
656.294312 253.746155
656.710327 275.490112
657.126404 256.217468
657.542358 261.654083
657.958252 278.948395
658.374084 219.138123
658.789917 238.422318
659.205688 204.300339
659.621338 195.395523
660.037048 216.665482
660.452637 182.531418
660.868164 138.970581
661.283691 201.82695
661.699158 300.189575
662.114502 372.25705
662.529846 387.055206
662.945129 359.429108
663.360413 350.053192
663.775635 321.917114
664.190674 287.84079
664.605835 229.52269
665.020813 235.950302
665.435791 237.433578
665.850769 172.139023
666.265625 186.489929
666.68042 176.593216
667.095215 177.582794
667.509949 192.427444
667.924622 168.674637
668.339233 195.890488
668.753784 167.189697
669.168335 129.065857
669.582825 170.159393
669.997192 158.77475
670.41156 128.57074
670.825867 171.643982
671.240173 155.804642
671.654358 141.941635
672.068481 144.91243
672.482605 113.710777
672.896667 130.056625
673.310669 96.864861
673.724609 128.57074
674.138489 85.962036
674.552307 121.636528
674.966064 117.673653
675.379822 115.196754
675.793579 109.747375
676.207153 73.570267
676.620789 120.150444
677.034241 99.838142
677.447754 103.801926
677.861206 69.604492
678.274597 81.997086
678.687866 55.225941
679.101135 88.93586
679.514404 87.448967
679.927551 102.811005
680.340698 135.999222
680.753723 150.358917
681.166748 111.729111
681.579712 146.893021
681.992615 141.446503
682.405457 137.980087
682.818298 119.15979
683.231018 110.24279
683.643738 102.811005
684.056335 100.333633
684.468994 54.233944
684.881531 118.664459
685.293945 108.756691
685.706482 105.288414
686.118774 179.067474
686.531128 197.869415
686.943481 169.169556
687.355713 234.466995
687.767883 269.56073
688.179932 257.700256
688.592041 249.297668
689.004089 163.724762
689.416016 162.239975
689.827881 149.368622
690.239868 140.456055
690.651611 108.261002
691.063354 102.811005
691.475098 94.387108
691.886719 30.922867
692.29834 83.979729
692.7099 91.909393
693.12146 109.747375
693.532837 191.932434
693.944214 194.406219
694.355652 127.084961
694.766846 106.279289
695.178101 97.360374
695.589294 96.864861
696.000366 18.02322
696.411438 57.209206
696.82251 33.403114
697.233459 63.655064
697.644409 11.076457
698.055298 12.068902
698.466064 -6.791208
698.876831 14.549941
699.287537 -16.720118
699.698181 -3.812888
700.108826 -1.331183
700.519348 -28.63678
700.92981 19.01582
701.340271 -21.188297
701.750732 1.150824
702.161011 62.167816
702.57135 23.977346
702.981567 41.835598
703.391724 38.363712
703.80188 38.859436
704.211914 81.997086
704.621948 89.927277
705.031921 112.719879
705.441895 196.88002
705.851746 277.960297
706.261536 371.763336
706.671265 453.111847
707.081055 561.417358
707.490662 561.909119
707.90033 520.577637
708.309814 557.4823
708.719299 694.095093
709.128784 672.491516
709.538147 661.687012
709.94751 515.655396
710.35675 383.109528
710.766052 354.987854
711.175171 355.975006
711.58429 447.69165
711.993347 511.71759
712.402405 531.8974
712.811401 525.007507
713.220276 401.356689
713.62915 304.140717
714.037964 204.300064
714.446777 207.268097
714.855408 144.417313
715.264099 99.837875
715.672668 53.737946
716.081177 41.835598
716.489746 23.977346
716.898132 6.113849
717.306519 9.091248
717.714844 -31.119638
718.123108 -10.76249
718.531372 -22.677946
718.939514 17.03101
719.347595 -4.309242
719.755676 -15.230621
720.163696 26.457886
720.571716 -32.609406
720.979614 -27.643532
721.387451 -25.657221
721.795227 -10.266083
722.202942 -42.046005
722.610718 -25.160686
723.018311 -20.691936
723.425903 -25.657221
723.833374 -12.251875
724.240906 -51.98061
724.648376 -8.280492
725.055725 -15.230621
725.463013 2.1433
725.8703 -7.784105
726.277466 -9.769544
726.684631 -24.167631
727.091797 -33.106136
727.498779 -46.019539
727.905823 -25.657221
728.312805 -19.202473
728.719666 -11.75532
729.126526 -7.783835
729.533264 -17.216311
729.940063 12.564982
730.34668 -36.582432
730.753357 -5.302097
731.159851 6.609845
731.566406 6.113579
731.9729 -36.582432
732.379272 -14.237735
732.785645 -35.092701
733.191895 -27.146982
733.598206 -51.483719
734.004333 -13.741162
734.410522 5.617309
734.816528 -40.059204
735.222656 -49.993607
735.628662 -27.643532
736.034546 -38.072472
736.44043 -29.133345
736.846252 -54.464596
737.252014 -31.119638
737.657715 -12.251875
738.063354 -33.602737
738.468933 -8.280492
738.874512 -41.549198
739.280029 -15.726936
739.685486 -57.942432
740.090881 -7.783835
740.496216 -13.741162
740.90155 -25.160686
741.306702 11.076457
741.711914 9.091383
742.117004 -9.273415
742.522095 -28.63678
742.927124 -21.188566
743.332031 -22.677946
743.737 5.120899
744.141785 -13.741162
744.546631 -30.126347
744.951355 0.157926
745.356079 -23.671246
745.76062 -19.698957
746.165283 -15.230621
746.569824 -16.720118
746.974243 -6.791208
747.378723 -11.75532
747.78302 -30.126347
748.187378 -39.562412
748.591614 -42.046005
748.99585 -25.657221
749.399963 -25.657221
749.804077 -38.072472
750.20813 -13.741162
750.612122 -27.643532
751.016052 -6.791343
751.419922 -15.726936
751.823792 -26.153893
752.227478 -13.741297
752.631226 -14.237465
753.034851 -54.961376
753.438477 -43.03936
753.842102 -14.237465
754.245544 -29.629776
754.648987 2.6396
755.052368 -75.333908
755.45575 -54.464596
755.859009 -18.209654
756.262268 -29.629776
756.665405 -27.146982
757.068542 -25.160686
757.47168 -18.705858
757.874634 -35.09243
758.277588 -44.529564
758.68042 -40.555866
759.083374 -2.323718
759.486084 -38.072472
759.888916 -51.48399
760.291504 -9.273145
760.694214 -25.160686
761.096802 -35.09243
761.499268 -7.287452
761.901733 -17.712914
762.304199 -50.987236
762.706543 -70.86132
763.108826 -19.202473
763.511108 12.564982
763.913208 -23.671246
764.315369 -29.133345
764.717529 -43.535912
765.119568 -28.139952
765.521545 -27.643532
765.923462 -28.140223
766.325317 -66.388947
766.727112 -45.522827
767.128845 -25.160686
767.530518 -30.623194
767.932251 -18.209383
768.333862 -25.657221
768.735413 -9.273145
769.136841 -14.734176
769.538269 -27.146982
769.939636 -37.079063
770.341003 -35.589317
770.742249 -11.75532
771.143433 -12.7483
771.544617 -30.622923
771.94574 -67.382713
772.346802 -18.705994
772.747803 -26.650434
773.148682 -26.650434
773.549622 -35.589317
773.950439 -20.195444
774.351196 -7.783835
774.751892 -9.273415
775.152588 -46.019539
775.553162 -13.741162
775.953735 33.899155
776.354309 -44.529564
776.754639 -31.616222
777.15509 -18.209383
777.55542 -52.477375
777.95575 -3.812888
778.355896 -50.490219
778.756104 -36.582432
779.156189 -83.782951
779.556274 -42.542679
779.956299 -32.609406
780.356201 -24.664156
780.756165 -17.712914
781.156006 -8.776749
781.555786 -64.898186
781.955505 -15.726936
782.355225 -37.575966
782.754761 -38.072472
783.154358 -21.188566
783.553894 -28.63678
783.953369 -54.961376
784.352783 -10.266083
784.752075 -45.026127
785.151367 -56.451885
785.550598 -23.174458
785.949768 -13.244729
786.348877 -18.209383
786.747986 -48.006538
787.147034 -26.153759
787.545959 -58.935921
787.944885 1.150824
788.34375 -1.331183
788.742493 -15.726936
789.141235 -48.503269
789.539917 -32.609406
789.938538 -33.602737
790.337158 -38.569115
790.735718 -26.153893
791.134094 -40.059067
791.532532 -35.09243
791.930847 -85.77124
792.329224 -36.085941
792.727417 -22.181301
793.12561 -55.458298
793.523682 -38.072472
793.921753 -27.146982
794.319824 -32.112812
794.717773 -7.287452
795.115723 -2.820059
795.51355 -20.195444
795.911377 -34.595951
796.309082 -29.133345
796.706787 -32.112812
797.10437 -43.535912
797.501953 -2.323718
797.899536 -29.133345
798.296936 -57.942162
798.694397 -55.458164
799.091736 -51.483719
799.489014 -37.079063
799.88623 -44.0326
800.283447 -22.677946
800.680542 -3.812888
801.077637 -39.065762
801.47467 -63.407726
801.871643 -45.025993
802.268555 -10.76249
802.665405 -33.602737
803.062256 30.426805
803.458923 -18.705858
803.855652 -30.622923
804.252258 -12.7483
804.648804 -46.019539
805.04541 -36.582432
805.441833 -27.643532
805.838257 -17.216311
806.234619 -41.549198
806.630859 -35.09243
807.0271 -51.483719
807.423279 -41.052662
807.819458 -41.052528
808.215515 -44.529297
808.611572 11.076457
809.007507 -14.237465
809.403381 -36.582432
809.799194 -47.013096
810.195068 -15.726936
810.590759 -20.195444
810.98645 6.113579
811.38208 21.992704
811.777649 27.450073
812.173157 -1.331183
812.568665 -22.181572
812.96405 -20.691936
813.359375 5.120899
813.754639 -30.622923
814.149841 -18.209654
814.545105 -51.98061
814.940186 -28.140223
815.335266 -39.065762
815.730347 -17.216446
816.125244 -60.923367
816.520203 -18.209654
816.914978 -30.126347
817.309753 -46.516247
817.704468 -45.522827
818.099182 -7.784105
818.493774 -57.445351
818.888367 -12.251875
819.282898 -68.873543
819.677307 -36.085941
820.071716 -61.420204
820.466003 -32.609406
820.860291 -16.720118
821.254517 -42.046005
821.648743 -22.181572
822.042786 -46.516247
822.43689 -44.529564
822.830872 -37.575699
823.224792 -7.784105
823.618774 -35.09243
824.012512 -53.471043
824.406311 -67.382713
824.799988 -31.119503
825.193665 -30.622923
825.58728 -28.139952
825.980835 -19.202473
826.374329 -40.555866
826.767761 -5.798463
827.161194 -18.705994
827.554443 -15.726936
827.947754 -41.052528
828.340942 0.654242
828.734131 -40.555866
829.127136 -45.522694
829.520264 -24.664156
829.913208 -29.133345
830.306152 -46.019539
830.699097 -48.503269
831.091797 -45.026127
831.484619 -29.629776
831.877319 -34.099342
832.27002 -8.280492
832.662537 -40.059067
833.055054 -65.395058
833.44751 17.527185
833.839966 -31.616222
834.232361 -44.0326
834.624634 -46.019539
835.016907 -43.535912
835.409058 -44.0326
835.801208 -55.955093
836.193298 -48.006538
836.585327 -40.059067
836.977295 -0.834854
837.369202 -41.549198
837.761047 -28.140223
838.152832 -29.629776
838.544617 -11.258903
838.936218 -45.026127
839.327942 -44.0326
839.719421 -31.119503
840.111023 9.587354
840.50238 -29.133345
840.89386 -26.650434
841.285217 -10.76249
841.676453 -16.223391
842.067749 -37.079063
842.458862 -20.195444
842.849976 -27.146982
843.241028 -20.691936
843.632019 -34.099342
844.022949 -35.09243
844.413879 -26.650166
844.804749 -34.595951
845.195496 -39.562412
845.586182 8.098753
845.976807 -45.522827
846.367432 -36.582432
846.757996 -35.092701
847.148499 -37.575966
847.538879 -28.139952
847.92926 -51.483719
848.319641 25.961651
848.709839 -39.562412
849.100098 -37.079063
849.490234 -47.509815
849.88031 3.135895
850.270325 -2.820329
850.660339 -21.685068
851.050171 -60.923367
851.440125 -62.413891
851.829895 -9.273145
852.219604 -23.671246
852.609314 -37.575966
852.998901 -63.407726
853.38855 -44.529297
853.778015 -13.244729
854.16748 -46.516247
854.556885 -49.496868
854.946228 -1.331183
855.335571 -44.529297
855.724731 -27.643532
856.113953 -50.490219
856.503052 -56.948685
856.892151 -10.76249
857.281067 -25.160686
857.670105 -48.006538
858.05896 -32.113083
858.447754 -24.167631
858.836609 -28.63678
859.225281 -13.244729
859.613892 -57.445351
860.002502 -22.677946
860.391052 -55.955093
860.779541 -31.616222
861.167969 -42.045734
861.556335 -15.230621
861.944702 -23.671246
862.332947 -34.595951
862.721069 -16.719849
863.109253 -25.160686
863.497314 -68.37664
863.885376 -57.445351
864.273315 -58.935921
864.661255 -44.032871
865.049072 -26.153759
865.43689 -68.37664
865.824707 -18.209383
866.21228 -19.698957
866.599915 -39.065762
866.987488 -43.535912
867.375061 -3.316539
867.762451 -29.629776
868.149841 -41.052258
868.53717 -40.555866
868.924438 -43.535912
869.311707 -19.698957
869.698853 -27.643667
870.085938 -35.09243
870.472961 -39.065762
870.859985 -43.535778
871.246887 -27.146982
871.633789 -76.327835
872.020569 -32.609539
872.407349 -29.629776
872.794067 -13.244729
873.180725 -57.445351
873.567322 -54.464325
873.953796 -48.006538
874.340332 -46.019539
874.726624 -85.2742
875.113037 -40.059067
875.499329 -52.974407
875.885559 -13.741162
876.271729 -8.776749
876.657898 -31.616222
877.044006 -46.019539
877.429932 -62.910606
877.815918 -33.106136
878.201782 -54.961109
878.587585 -21.188297
878.973389 -49.496597
879.35907 -13.741162
879.744751 -62.413891
880.13031 -5.798463
880.51593 -31.616222
880.901367 -37.575966
881.286804 -6.294834
881.67218 -16.223391
882.057434 -44.0326
882.442749 -47.013096
882.827942 -65.892067
883.213013 -38.072472
883.598145 -11.258903
883.983154 -41.052528
884.368042 -73.345978
884.753052 -20.195444
885.137817 -31.119503
885.522644 -35.589046
885.907349 -39.065762
886.292053 -58.935921
886.676636 -49.993607
887.061157 -66.885826
887.44574 -42.542679
887.830078 -18.209383
888.214539 -13.244729
888.598816 -13.741297
888.983093 -0.33826
889.367249 -12.251875
889.751465 -10.76249
890.135498 -31.616222
890.519531 -48.999863
890.903503 -13.244729
891.287415 11.076457
891.671326 -62.413891
892.055054 -30.126347
892.438843 -40.555595
892.82251 -55.458164
893.206116 -27.643532
893.589661 -49.496868
893.973206 -52.97414
894.356628 -35.589317
894.73999 -37.079063
895.123352 -12.251875
895.506592 0.654242
895.889832 -60.923233
896.272949 -66.885826
896.656067 -54.464596
897.039063 -50.987236
897.422058 -35.09243
897.804993 -56.451885
898.187866 -49.99334
898.570618 -32.609406
898.953369 -4.8056
899.336121 -33.106136
899.718689 -39.065762
900.101257 -73.345978
900.483704 -27.643532
900.866211 -30.126617
901.248596 -52.477375
901.63092 -34.595951
902.013184 -67.879745
902.395386 -49.496597
902.777588 -26.650166
903.159668 -50.986969
903.541687 -47.509815
903.923645 -3.812888
904.305603 -40.059204
904.6875 -21.188297
905.069275 -33.106136
905.45105 -36.085941
905.832642 -53.470909
906.214294 -13.244729
906.595825 -20.195444
906.977417 -42.045734
907.358826 -49.993607
907.740234 -37.575699
908.121582 -41.052528
908.502869 -41.052528
908.884033 -38.569115
909.265198 -58.438972
909.646301 -11.258903
910.027344 -50.986969
910.408325 -46.516247
910.789246 -45.522827
911.170105 -26.650434
911.550903 -44.0326
911.931641 -38.072472
912.312317 -17.216446
912.692932 -20.691936
913.073547 -59.432747
913.453979 -8.776749
913.834473 -27.643532
914.214783 -19.698957
914.595154 38.363579
914.975464 -35.589317
915.355652 -44.0326
915.73584 -14.237465
916.115845 5.617309
916.495972 -34.099342
916.875854 -32.112812
917.255859 -26.153759
917.63562 -42.542679
918.015503 -4.309242
918.395203 -50.986969
918.774902 -5.798463
919.15448 -7.784105
919.534058 -55.458164
919.913574 -48.999863
920.292969 -23.670975
920.672363 -27.643532
921.051636 -70.86132
921.430969 -56.451614
921.810181 -16.719849
922.189331 -13.741297
922.56842 -14.237735
922.947388 -24.664156
923.326416 -58.935921
923.705261 -43.03936
924.084106 4.624621
924.462891 -61.420204
924.841675 -52.477375
925.220337 3.135895
925.598938 -35.589317
925.977478 -15.230621
926.355957 -30.126347
926.734436 -29.133345
927.112732 -6.294834
927.491089 -13.741162
927.869324 -27.643532
928.247559 -22.181572
928.625671 -54.464596
929.003723 -49.496868
929.381775 -3.812888
929.759705 -57.445351
930.137634 -86.268295
930.515381 -58.439243
930.89325 -11.258903
931.270935 -28.63678
931.64856 -64.401314
932.026123 -31.616087
932.403687 -56.451614
932.78125 -50.490219
933.15863 16.534832
933.536011 -36.582699
933.913208 -33.106136
934.290527 -1.82738
934.667664 0.654242
935.0448 0.157926
935.421814 -26.153893
935.798889 -27.643532
936.175842 -46.516384
936.552673 -35.589317
936.929504 -66.388947
937.306274 -48.006538
937.683044 -40.555866
938.05957 -47.509815
938.436218 2.1433
938.812744 -19.698957
939.189148 -45.522827
939.565613 -79.806847
939.941956 -49.496597
940.318237 -42.046005
940.694458 -25.160686
941.070557 -35.09243
941.446655 -14.733905
941.822693 -47.013096
942.198669 -24.167496
942.574646 -22.678215
942.950562 -18.705858
943.326294 -38.569115
943.702026 -32.609406
944.077698 -17.712914
944.453369 -47.509815
944.828918 -45.026127
945.204468 -36.582432
945.579834 -34.099342
945.955261 -15.230621
946.330627 -71.855034
946.705811 -19.698957
947.081055 -46.019539
947.456177 -27.146982
947.831238 -43.535912
948.206238 -4.309512
948.581238 -26.650434
948.956116 -21.684797
949.330933 -34.595951
949.705811 -45.026127
950.080505 -39.065762
950.455139 -62.413891
950.829773 -59.432747
951.204346 0.157791
951.578735 -19.202473
951.953186 -27.146982
952.327515 -23.671246
952.701843 -62.910606
953.076172 -55.458298
953.450195 -56.948685
953.824341 -35.589046
954.198486 -49.993607
954.572449 -6.791343
954.94635 -52.97414
955.320251 -18.705858
955.694092 -52.477375
956.067871 -26.153759
956.441589 -40.555866
956.815125 -72.351967
957.188721 -75.830872
957.562256 -44.529297
957.93573 -41.549198
958.309021 -20.195444
958.682373 -53.470909
959.055664 -64.401314
959.428955 -29.133345
959.802063 -27.643532
960.17511 -44.0326
960.548157 -22.677946
960.921143 -20.691936
961.294128 -29.133345
961.666809 -33.106136
962.039612 -31.119638
962.412415 -23.670975
962.785095 -32.609406
963.157715 -34.099342
963.530151 -19.202473
963.902649 -23.670975
964.275146 -37.079063
964.647522 -39.562412
965.019714 -13.244729
965.392029 -63.407459
965.76416 -43.535912
966.136292 -61.420204
966.508423 -50.490219
966.880371 -30.622923
967.252319 -21.188297
967.624207 -25.657354
967.996094 -36.085941
968.367737 -30.622923
968.739441 -51.98061
969.111084 -49.496597
969.482666 -29.629776
969.854248 -31.119638
970.225586 -53.967815
970.596985 -47.509815
970.968323 -18.209654
971.339661 -37.575966
971.710754 -52.477375
972.081909 -24.664156
972.453064 -38.072472
972.824097 1.646862
973.194946 -26.153893
973.565918 -49.496868
973.936768 -60.426395
974.307556 -37.079334
974.678284 -19.698957
975.048828 -53.967682
975.419495 -54.961376
975.790039 -31.119638
976.160522 -23.670975
976.530884 -20.195444
976.901245 -58.935921
977.271606 -41.549198
977.641846 -11.258903
978.012024 -28.63678
978.382019 -21.684797
978.752136 -9.273145
979.122131 -2.323718
979.492065 5.617579
979.861877 -28.140223
980.231689 -31.119503
980.60144 -33.106136
980.971191 -62.910606
981.34082 -28.63678
981.710266 -12.25174
982.079773 -17.712914
982.44928 -35.589317
982.818604 -19.202473
983.187866 -41.549332
983.557129 -27.643667
983.926331 -60.426395
984.295471 -48.006538
984.664612 -71.855034
985.033569 -62.413891
985.402527 -26.650166
985.771362 -32.112812
986.140259 7.106242
986.508911 -10.265947
986.877625 -9.769814
987.246277 -45.026127
987.614929 -46.516247
987.983459 -56.451885
988.351807 -35.09243
988.720215 -24.664156
989.088623 -20.691936
989.456909 -43.535912
989.825012 -48.006538
990.193115 -62.910606
990.561279 -23.671246
990.929321 -36.582432
991.297302 -36.085941
991.6651 -7.784105
992.03302 -25.160686
992.400818 -51.98061
992.768494 -23.174458
993.136047 -22.181572
993.503723 -23.174728
993.871277 -12.7483
994.23877 -53.967815
994.60614 -70.364403
994.97345 -46.516384
995.340759 -40.059067
995.708008 -57.942162
996.075195 -23.174458
996.4422 -33.602737
996.809265 -42.046005
997.17627 -46.516247
997.543152 -47.013096
997.910095 -40.555866
998.276733 -38.072472
998.643494 -101.182442
999.010193 -56.451614
999.376831 -40.059067
999.743286 -34.595951
1000.109802 -17.216446
1000.476257 -55.458164
1000.842651 -45.026127
1001.208923 -34.595951
1001.575134 -75.333908
1001.941284 -53.470909
1002.307434 -37.079063
1002.673523 -14.237465
1003.039429 -30.623194
1003.405334 -11.75532
1003.771179 -26.153759
1004.137024 -23.174458
1004.502808 -27.643532
1004.868408 -15.726936
1005.234009 -43.535912
1005.599609 -24.167631
1005.965149 -59.432747
1006.330444 -57.942162
1006.695862 -45.025993
1007.061218 -50.490219
1007.426453 -47.012962
1007.791626 -48.006538
1008.156677 -71.358109
1008.521729 -26.650434
1008.88678 -50.986969
1009.251709 -40.059067
1009.616577 -51.98061
1009.981384 -53.967682
1010.34613 -33.106136
1010.710754 -20.691936
1011.075439 -15.726936
1011.439941 -35.589317
1011.804443 -29.629776
1012.168884 -17.216446
1012.533325 -21.685068
1012.897522 -17.712914
1013.26178 -14.734176
1013.626038 -41.549332
1013.990112 -14.734176
1014.354187 11.076187
1014.71814 10.580093
1015.082153 -31.119638
1015.446045 -36.085941
1015.809937 -41.549198
1016.173523 -35.09243
1016.53717 -17.216446
1016.900879 -15.230351
1017.264404 -23.671246
1017.627991 -35.092701
1017.991333 -24.167496
1018.354675 -34.595951
1018.718018 -36.085941
1019.081299 -31.616222
1019.444397 -5.798463
1019.807495 -40.059204
1020.170593 -43.535912
1020.533691 -74.836952
1020.896606 -33.106136
1021.25946 -39.065762
1021.622253 -45.026127
1021.985046 -11.75532
1022.347778 -37.079063
1022.710327 -66.885826
1023.072876 -52.97414
1023.435364 -47.509815
1023.797852 -51.48399
1024.160278 -58.439243
1024.522461 -36.582432
1024.884766 -51.98061
1025.246948 -42.542679
1025.609131 -59.929569
1025.971069 -9.769544
1026.33313 -30.622923
1026.694946 -45.522827
1027.056885 -4.309242
1027.418823 -69.867218
1027.780396 -43.535912
1028.14209 -48.503269
1028.503784 -22.677946
1028.865479 -70.86132
1029.226807 -33.602737
1029.588135 -63.904591
1029.949707 -41.549198
1030.310913 -44.529564
1030.672241 -32.609406
1031.033325 -62.413891
1031.394531 -29.629776
1031.755493 -18.209383
1032.116577 -41.549198
1032.477417 -38.072472
1032.838257 -42.542408
1033.199097 -54.464325
1033.559937 -63.407459
1033.920654 -33.106003
1034.281128 -45.522827
1034.641724 -45.522694
1035.002197 -23.671246
1035.362671 -15.726936
1035.7229 -39.562412
1036.083252 -66.885826
1036.443481 -55.954823
1036.803711 -17.216446
1037.16394 -36.08567
1037.523804 -43.03936
1037.883789 -73.842918
1038.243774 -60.923367
1038.603638 -53.470909
1038.963257 -37.079063
1039.32312 -58.935787
1039.682861 -56.948685
