188.301102 0.0
188.764923 0.0
189.228699 -56.700218
189.692459 -51.732166
190.156158 -41.797462
190.619812 -26.89864
191.083435 54.977806
191.547043 -39.314152
192.01059 -24.415827
192.474091 10.33191
192.937561 62.415512
193.401001 -21.933252
193.86441 79.766609
194.327759 37.619507
194.791077 0.406152
195.254349 -19.450647
195.717575 54.977806
196.180786 35.139431
196.643951 52.498455
197.107071 25.217697
197.570145 -7.03933
198.033203 -69.121925
198.496216 -34.34758
198.959167 45.05938
199.422089 7.850694
199.884979 10.33191
200.347855 -29.381559
200.810654 15.294299
201.273422 -71.606644
201.73616 -61.668556
202.198853 -14.485888
202.661514 -14.485888
203.12413 -29.381559
203.5867 -36.830814
204.04924 -116.349022
204.511734 -39.314152
204.974197 -41.797462
205.436615 40.099613
205.899002 67.373558
206.361343 -51.732166
206.823654 2.88768
207.285919 5.369239
207.748123 -89.002342
208.210327 10.33191
208.672485 -34.34758
209.134583 -19.450647
209.596649 27.698185
210.05867 -26.89864
210.520676 -69.121925
210.982635 12.813156
211.444534 12.813156
211.906403 35.139431
212.36824 -24.415827
212.830048 0.406152
213.291779 2.88768
213.753494 32.659122
214.215179 -74.091461
214.676819 37.619507
215.138412 -16.968147
215.59996 -56.700218
216.061493 -161.126007
216.522949 -56.700218
216.984406 -19.450647
217.445801 25.217697
217.907166 -66.637321
218.368484 -51.732166
218.829773 10.33191
219.291031 -59.184269
219.752228 -51.732166
220.213379 -21.933252
220.6745 -93.973442
221.135574 -36.830814
221.596634 -84.031532
222.057648 -34.34758
222.5186 -64.152954
222.979553 -46.764671
223.44043 -89.002342
223.901276 -76.576256
224.362076 45.05938
224.822845 -41.797462
225.283569 -26.89864
225.744278 -116.349022
226.20491 10.33191
226.665512 -29.381559
227.126114 42.579617
227.586639 -14.485888
228.047119 -46.764671
228.507568 -59.184269
228.967972 -56.700218
229.428345 -49.248432
229.888687 27.698185
230.348984 -7.03933
230.809219 -56.700218
231.26944 -2.075616
231.729614 -71.606644
232.189758 -41.797462
232.649841 -76.576256
233.109894 -66.637321
233.569901 -29.381559
234.029892 -2.075616
234.489822 -36.830814
234.949707 -2.075616
235.409561 32.659122
235.869385 -39.314152
236.329163 -96.459221
236.788895 -51.732166
237.248581 -14.485888
237.708237 -21.933252
238.167847 -76.576256
238.627441 -9.521411
239.08696 -96.459221
239.546463 -86.516884
240.00592 -16.968147
240.465332 -24.415827
240.924698 -41.797462
241.384033 -86.516884
241.843338 -41.797462
242.302597 -14.485888
242.76181 -21.933252
243.220993 20.256138
243.680115 -29.381559
244.139221 -39.314152
244.598282 -44.281013
245.057297 12.813156
245.516266 -41.797462
245.975189 -56.700218
246.434082 0.406152
246.892944 7.850694
247.351761 -29.381559
247.810516 25.217697
248.269272 15.294299
248.727951 -84.031532
249.1866 -89.002342
249.645218 -71.606644
250.10379 40.099613
250.562317 -91.487907
251.020813 -64.152954
251.479279 -39.314152
251.937668 -36.830814
252.396057 -14.485888
252.854385 22.736969
253.312683 -26.89864
253.77092 59.936474
254.229126 -34.34758
254.687302 -81.546425
255.145432 -9.521411
255.6035 -14.485888
256.061584 -81.546425
256.519592 -16.968147
256.97757 -39.314152
257.435455 -34.34758
257.893372 -14.485888
258.351196 -69.121925
258.80899 64.894592
259.266754 -79.061287
259.724487 -29.381559
260.18219 -2.075616
260.639832 0.406152
261.097443 -66.637321
261.554993 27.698185
262.012512 -9.521411
262.469971 -51.732166
262.927429 40.099613
263.384827 17.775339
263.842194 0.406152
264.29953 -24.415827
264.756805 -21.933252
265.21405 -16.968147
265.671234 12.813156
266.128387 30.178703
266.58551 -74.091461
267.042572 -49.248432
267.499573 -29.381559
267.956604 -71.606644
268.413574 -39.314152
268.870483 -111.375862
269.327362 17.775339
269.78418 15.294299
270.240936 -69.121925
270.697693 -34.34758
271.154419 -74.091461
271.611053 -31.864586
272.067688 -46.764671
272.524292 -64.152954
272.980835 -64.152954
273.437347 -84.031532
273.893799 -39.314152
274.35025 -34.34758
274.80661 -59.184269
275.262939 -24.415827
275.719238 7.850694
276.175507 -59.184269
276.631714 -96.459221
277.087891 -93.973442
277.544067 -49.248432
278.000122 30.178703
278.456177 10.33191
278.912201 -49.248432
279.368164 -26.89864
279.824097 -96.459221
280.279968 -71.606644
280.73584 -91.487907
281.19162 -16.968147
281.6474 -29.381559
282.103149 57.457191
282.558838 37.619507
283.014465 -44.281013
283.470062 -44.281013
283.925629 10.33191
284.381134 -71.606644
284.836639 -36.830814
285.292053 -34.34758
285.747467 -76.576256
286.20282 -26.89864
286.658142 52.498455
287.113434 -12.003596
287.568634 -39.314152
288.023804 -41.797462
288.478973 -19.450647
288.934113 -21.933252
289.38913 -24.415827
289.844208 -16.968147
290.299164 -29.381559
290.754089 0.406152
291.208984 -51.732166
291.663879 -56.700218
292.118683 -44.281013
292.573456 -49.248432
293.028198 0.406152
293.482849 -12.003596
293.937561 22.736969
294.392151 -14.485888
294.846741 20.256138
295.301239 -81.546425
295.755737 -31.864586
296.210175 17.775339
296.664581 -26.89864
297.118958 17.775339
297.573242 -31.864586
298.027557 -12.003596
298.481812 -79.061287
298.935974 0.406152
299.390137 -41.797462
299.844238 -19.450647
300.29834 22.736969
300.75235 -86.516884
301.20636 -29.381559
301.660278 62.415512
302.114197 10.33191
302.568054 -26.89864
303.021881 -31.864586
303.475677 -39.314152
303.929413 -7.03933
304.383118 -66.637321
304.836761 -39.314152
305.290375 17.775339
305.743958 -108.88958
306.19751 17.775339
306.65097 -7.03933
307.104431 -14.485888
307.5578 -76.576256
308.011169 -103.917061
308.464508 12.813156
308.917755 79.766609
309.371063 -69.121925
309.824219 -7.03933
310.277374 -59.184269
310.730499 25.217697
311.183563 -14.485888
311.636597 -26.89864
312.089569 -59.184269
312.542511 30.178703
312.995422 -12.003596
313.448273 42.579617
313.901093 -49.248432
314.353882 2.88768
314.80658 -12.003596
315.259308 -26.89864
315.711975 -69.121925
316.164581 -69.121925
316.617126 -26.89864
317.069672 -36.830814
317.522156 -31.864586
317.974579 -36.830814
318.427002 -79.061287
318.879333 -74.091461
319.331665 45.05938
319.783936 20.256138
320.236176 -34.34758
320.688354 50.018867
321.140503 40.099613
321.592651 -49.248432
322.044647 -69.121925
322.496704 -36.830814
322.948639 5.369239
323.400604 -59.184269
323.852509 -91.487907
324.304352 -66.637321
324.756165 -29.381559
325.207916 -29.381559
325.659668 -86.516884
326.111328 -113.862389
326.562988 17.775339
327.014557 50.018867
327.466156 -36.830814
327.917664 -21.933252
328.36911 -39.314152
328.820557 -34.34758
329.271942 -14.485888
329.723297 -34.34758
330.174561 -54.216141
330.625854 -31.864586
331.077026 -19.450647
331.528229 -89.002342
331.97937 15.294299
332.43045 -34.34758
332.8815 50.018867
333.332489 -39.314152
333.783478 45.05938
334.234406 -79.061287
334.685303 0.406152
335.136078 10.33191
335.586914 -9.521411
336.037659 -91.487907
336.488342 7.850694
336.939026 45.05938
337.389648 -12.003596
337.84024 -64.152954
338.290771 40.099613
338.741272 -24.415827
339.191681 -54.216141
339.64212 -41.797462
340.092468 -131.270813
340.542816 -14.485888
340.993103 -56.700218
341.443329 -16.968147
341.893555 10.33191
342.343689 10.33191
342.793793 -26.89864
343.243866 27.698185
343.693878 -19.450647
344.14389 -64.152954
344.593842 -36.830814
345.043732 -14.485888
345.493591 -14.485888
345.943359 -29.381559
346.393158 5.369239
346.842896 -46.764671
347.292542 -31.864586
347.742218 -21.933252
348.191803 -7.03933
348.641357 -19.450647
349.090881 -19.450647
349.540314 12.813156
349.989777 -12.003596
350.439148 -2.075616
350.888489 -39.314152
351.337799 2.88768
351.787048 -59.184269
352.236267 -24.415827
352.685425 -49.248432
353.134552 -54.216141
353.583649 20.256138
354.032684 -49.248432
354.481659 -4.557488
354.930634 -34.34758
355.379517 -12.003596
355.82843 -61.668556
356.277222 -61.668556
356.726013 -36.830814
357.174774 -12.003596
357.623444 -49.248432
358.072113 -29.381559
358.520721 -9.521411
358.969299 -16.968147
359.417786 17.775339
359.866302 -123.809433
360.314697 35.139431
360.763123 -29.381559
361.211456 -19.450647
361.65976 -49.248432
362.108032 -74.091461
362.556244 -2.075616
363.004456 10.33191
363.452576 -36.830814
363.900696 0.406152
364.348663 5.369239
364.796722 -19.450647
365.24469 15.294299
365.692596 -51.732166
366.140472 -69.121925
366.588287 -31.864586
367.036102 -12.003596
367.483826 -51.732166
367.931549 -71.606644
368.379181 -21.933252
368.826843 -19.450647
369.274384 -24.415827
369.721924 -59.184269
370.169403 -36.830814
370.616821 -61.668556
371.06427 -51.732166
371.511566 -66.637321
371.958923 -51.732166
372.406158 -69.121925
372.853424 5.369239
373.300568 -16.968147
373.747711 -49.248432
374.194794 -29.381559
374.641846 -76.576256
375.088898 -64.152954
375.535828 -24.415827
375.982758 -24.415827
376.429596 -26.89864
376.876465 25.217697
377.323242 -34.34758
377.769989 -4.557488
378.216675 30.178703
378.66333 -34.34758
379.109985 -31.864586
379.556519 -24.415827
380.003052 -31.864586
380.449524 -16.968147
380.895996 -39.314152
381.342377 -91.487907
381.788727 -49.248432
382.235046 -16.968147
382.681274 -44.281013
383.127533 -2.075616
383.573669 -74.091461
384.019836 0.406152
384.465912 -66.637321
384.911957 -29.381559
385.357971 -2.075616
385.803925 47.539177
386.249847 -19.450647
386.695679 -36.830814
387.141541 -46.764671
387.587311 -131.270813
388.033051 27.698185
388.478729 5.369239
388.924408 -9.521411
389.369995 45.05938
389.815552 12.813156
390.261078 72.331062
390.706543 -26.89864
391.152008 22.736969
391.597351 22.736969
392.042725 7.850694
392.487976 111.976875
392.933289 27.698185
393.378479 116.930702
393.823639 136.742203
394.268768 116.930702
394.713837 131.789871
395.158905 210.977798
395.603851 173.871216
396.048798 126.837257
396.493683 248.06189
396.938568 235.703049
397.383392 250.533417
397.828156 233.230927
398.272888 341.909851
398.71756 285.123962
399.162201 285.123962
399.606781 322.164063
400.051361 248.06189
400.495819 383.848999
400.940308 415.90155
401.384705 425.760803
401.829102 447.93808
402.273438 470.108002
402.717682 605.426758
403.161926 860.556885
403.60611 2082.182129
404.050293 4045.042725
404.494385 6380.60791
404.938446 6875.093262
405.382477 6088.543945
405.826447 4692.671875
406.270386 3566.854492
406.714233 2498.164795
407.158081 1669.011108
407.601868 1474.989868
408.045624 1436.128174
408.489319 1275.614014
408.933014 1170.852539
409.376617 1119.635742
409.82019 1117.195923
410.263702 946.206116
410.707184 850.76178
411.150635 943.760376
411.594025 946.206116
412.037384 963.323486
412.480682 995.101929
412.923981 955.987854
413.367126 1034.19458
413.810333 1063.5
414.253479 1029.309082
414.696533 1144.028931
415.139587 1092.793579
415.582581 1068.383179
416.025543 1173.290283
416.468414 1129.393921
416.911285 1124.514893
417.354065 1119.635742
417.796875 1195.22876
418.239594 1290.220215
418.682281 1212.287476
419.124908 1207.413818
419.567505 1256.134521
420.010071 1319.424438
420.452545 1299.956299
420.89502 1258.569702
421.337372 1421.549927
421.779785 1482.274536
422.222107 1399.677368
422.664368 1453.13269
423.106628 1523.540039
423.548798 1433.698608
423.990967 1494.413696
424.433044 1579.335571
424.875092 1618.126709
425.317078 1656.89856
425.759064 1673.855469
426.200989 1649.630371
426.642853 1780.360107
427.084686 1705.337524
427.526459 1700.494873
427.968201 1731.966431
428.409912 1712.600586
428.851563 1799.709717
429.293121 1809.382568
429.734711 1845.646362
430.176239 1906.050415
430.617706 1828.72522
431.059113 1860.147339
431.500488 1838.39502
431.941833 2002.606567
432.383087 1983.304199
432.824341 1980.890991
433.265533 2111.100342
433.706726 2339.697021
434.147827 2804.716553
434.588867 5210.458984
435.029877 12539.260742
435.470825 23654.966797
435.911804 29817.458984
436.352661 29988.847656
436.793518 23474.189453
437.234283 18082.908203
437.675049 14799.952148
438.115723 10062.753906
438.556396 5767.864258
438.99704 3815.6875
439.437561 2845.35498
439.878113 2644.382324
440.318573 2579.69165
440.759033 2517.354004
441.199341 2613.240479
441.639709 2478.971191
442.079956 2570.104248
442.520264 2375.736816
442.96051 2677.907715
443.400604 2639.591797
443.840759 2584.485107
444.280762 2725.779785
444.720825 2637.196777
445.160767 2646.7771
445.600739 2713.813965
446.040558 2701.846924
446.480438 2709.027344
446.920258 2771.236572
447.359955 2809.498047
447.799713 2936.131104
448.239319 2852.524414
448.678955 2943.293701
449.1185 2890.753662
449.558014 2866.862305
449.997498 3041.133545
450.436951 2971.939697
450.876343 3157.935059
451.315674 3131.726318
451.754974 3002.964111
452.194183 3226.997314
452.633392 3181.755127
453.07251 3141.257813
453.511688 3150.787842
453.950684 3217.474365
454.38974 3260.320801
454.828735 3131.726318
455.267639 3312.663818
455.706543 3124.577637
456.145325 3226.997314
456.584137 3364.979004
457.022858 3234.138916
457.461578 3165.081787
457.900208 3269.839844
458.338867 3410.138916
458.777405 3343.580566
459.215912 3521.76416
459.654388 3452.903564
460.092773 3433.89917
460.531189 3322.177246
460.969513 3509.894775
461.407806 3509.894775
461.846008 3673.56958
462.284241 3455.278564
462.722351 3462.404053
463.160461 3543.125244
463.598541 3711.486572
464.03653 3697.269775
464.474518 3829.888916
464.912384 3851.187256
465.350281 3782.543945
465.788086 3912.69165
466.225891 4014.332764
466.663605 3957.61499
467.101318 4054.489746
467.539001 4033.231934
467.976563 4144.199219
468.414124 4073.382568
468.851593 4266.84082
469.289063 4495.249512
469.72644 4464.665527
470.163849 4422.304199
470.601135 4572.849609
471.038422 4716.150879
471.475677 4678.581055
471.912811 4847.54834
472.350006 4863.962402
472.787048 4882.71875
473.224121 4964.740723
473.661072 5032.657227
474.098053 5348.304199
474.534943 5345.969238
474.971802 5355.309082
475.40863 5527.962891
475.845367 5492.985352
476.282104 5574.583008
476.71875 5805.087891
477.155426 5860.901855
477.591949 5856.251465
478.028503 5921.337891
478.464966 5916.689941
478.901428 6095.505859
479.33786 6232.344238
479.77417 6144.228516
480.21051 6318.081055
480.646698 6531.007813
481.082947 6429.218262
481.519073 6757.424805
481.9552 6789.736816
482.391266 6745.882813
482.827301 6971.915039
483.263306 6962.696777
483.699188 7123.914551
484.135101 6930.428711
484.570923 6831.268555
485.006744 7165.337891
485.442413 7112.40625
485.878174 7427.375977
486.313782 7330.897461
486.74939 7429.671875
487.184998 7448.040039
487.620453 7454.928223
488.055939 7551.314453
488.491333 7459.519531
488.926727 7626.996582
489.36203 7335.493652
489.797302 7620.117676
490.232513 7725.546875
490.667755 7431.96875
491.102905 7993.321777
491.537964 7874.37793
491.973022 7988.749512
492.40799 7805.706543
492.842957 8084.744141
493.277832 8011.611816
493.712738 8144.135742
494.147491 7862.935547
494.582275 7972.742676
495.017029 7789.679199
495.45166 7920.138184
495.886292 7785.099121
496.320831 8123.580078
496.755402 7878.954102
497.18985 8048.183105
497.624298 8123.580078
498.058655 7917.850586
498.493042 7954.447754
498.927368 7984.175781
499.361572 7821.733887
499.795807 8055.039551
500.229919 8050.468262
500.664063 7872.089844
501.098083 8004.75293
501.532104 7858.357422
501.966064 7988.749512
502.399994 8011.611816
502.833893 8013.897461
503.2677 7975.029297
503.701477 8212.630859
504.135193 8059.609375
504.568909 8043.612305
505.002502 8009.324707
505.436127 7986.462402
505.869629 7975.029297
506.303162 7922.425293
506.736603 7878.954102
507.169983 7867.511719
507.603363 8004.75293
508.036621 8002.466797
508.46994 7922.425293
508.903107 8032.18457
509.336304 7940.725098
509.769379 7970.456543
510.202484 7904.124023
510.635529 7613.23877
511.068481 8160.121582
511.501434 8255.994141
511.934265 8082.459961
512.367126 8064.180664
512.799927 7727.837402
513.232605 7771.358398
513.665344 7922.425293
514.097961 8018.469238
514.530579 7567.371582
514.963135 7830.890625
515.395691 7874.37793
515.828064 7869.800781
516.260498 8002.466797
516.692871 7860.646973
517.125183 7649.921875
517.557373 7872.089844
517.989624 7720.964844
518.421753 7791.96875
518.853943 7846.913574
519.286072 7737.000977
519.718018 7883.53125
520.150024 7840.046875
520.581909 7773.648438
521.013855 7904.124023
521.445679 7711.799805
521.877502 7718.672852
522.309204 7668.259277
522.740906 7835.468262
523.172546 7787.38916
523.604187 7743.874023
524.035767 7807.99707
524.467224 7544.431641
524.898682 7665.966309
525.330078 7746.164063
525.761475 7741.582031
526.192749 7764.488281
526.624023 7812.575684
527.055237 7542.137695
527.486389 7443.449219
527.917542 7571.959473
528.348572 7640.751953
528.779663 7544.431641
529.210571 7711.799805
529.641541 7640.751953
530.072388 7748.454102
530.503235 7560.490234
530.934082 7473.29248
531.364746 7592.601074
531.795532 7594.894043
532.226135 7498.540527
532.656738 7549.02002
533.08728 7576.546387
533.517822 7686.593262
533.948242 7643.043945
534.378662 7608.652832
534.809082 7675.134277
535.239319 7443.449219
535.669617 7624.704102
536.099792 7610.946289
536.529968 7622.410156
536.960083 7714.09082
537.390137 7929.288086
537.82019 7610.946289
538.250183 7789.679199
538.680115 7835.468262
539.109985 7766.77832
539.539795 7539.84375
539.969543 7872.089844
540.399292 7730.12793
540.828979 7798.838379
541.258606 7906.411621
541.688171 8059.609375
542.117737 8285.654297
542.547302 8029.897949
542.976685 8294.779297
543.406128 8506.764648
543.835388 8593.286133
544.264771 8536.370117
544.69397 9129.414063
545.12323 13853.255859
545.552307 30053.396484
545.981506 43683.90625
546.410583 50262.746094
546.839539 42360.527344
547.268555 30781.166016
547.697449 26537.763672
548.126282 25429.392578
548.555054 23588.818359
548.983887 19064.488281
549.412598 14626.264648
549.841309 11319.058594
550.269958 9904.984375
550.698486 9095.399414
551.127075 9278.978516
551.555481 9136.214844
551.983948 8841.163086
552.412292 8770.711914
552.840698 8991.038086
553.26886 8961.530273
553.697205 8809.350586
554.125366 9022.807617
554.553467 8966.069336
554.981628 8986.498047
555.409607 9047.765625
555.837646 9174.75293
556.265564 9120.34375
556.693481 9299.361328
557.121338 9020.539063
557.549133 9351.436523
557.976929 9288.036133
558.404602 9453.268555
558.832275 9584.412109
559.259888 9609.270508
559.687439 9812.49707
560.114929 9767.360352
560.542419 9796.701172
560.969788 9844.084961
561.397156 9925.27832
561.824524 10001.919922
562.25177 9814.753906
562.679016 10031.212891
563.10614 10042.478516
563.533264 10101.043945
563.960327 9909.494141
564.387329 9970.366211
564.814331 9674.786133
565.241272 10137.073242
565.668213 10114.555664
566.094971 9990.651367
566.52179 10125.814453
566.948425 9798.958008
567.375183 9983.889648
567.801819 9830.547852
568.228394 10150.581055
568.654846 9823.779297
569.081421 10128.066406
569.507874 9835.060547
569.934265 9661.234375
570.360596 9728.983398
570.786865 9848.595703
571.213074 9631.866211
571.639282 9871.155273
572.06543 9830.547852
572.491516 9893.708008
572.917603 9719.951172
573.343567 9744.787109
573.769531 9616.048828
574.195435 9695.112305
574.621277 9566.331055
575.047119 9803.470703
575.472839 9722.209961
575.89856 9880.175781
576.324158 11470.938477
576.749817 13478.006836
577.175293 14769.179688
577.60083 14186.081055
578.026306 12659.05957
578.451721 13650.254883
578.877136 15111.908203
579.302429 15844.592773
579.727661 15320.450195
580.152832 13318.891602
580.578064 12110.470703
581.003113 11524.509766
581.428223 11102.166992
581.853271 10849.12793
582.278198 10278.850586
582.703125 9803.470703
583.12793 9498.503906
583.552795 9503.027344
583.977539 9161.15332
584.402283 9050.03418
584.826965 9138.482422
585.251587 8993.307617
585.676208 9004.654297
586.100647 8934.286133
586.525208 8863.882813
586.949524 8925.203125
587.373962 8993.307617
587.798218 9040.958984
588.222534 9018.269531
588.646729 8747.977539
589.070984 8511.319336
589.495117 8684.302734
589.919128 8734.334961
590.343201 8622.873047
590.767151 8470.318359
591.191101 8495.375977
591.61499 8543.200195
592.038818 8433.861328
592.462524 8283.373047
592.886292 8379.157227
593.310059 8226.326172
593.733582 7988.749512
594.157227 8048.183105
594.58075 8130.432617
595.004272 7910.986816
595.427673 7961.309082
595.851074 7892.684082
596.274353 8002.466797
596.697632 7661.382813
597.120911 7654.505859
597.544067 7668.259277
597.967224 7519.193848
598.39032 7551.314453
598.813354 7560.490234
599.236328 7436.560547
599.659241 7317.109375
600.082153 7225.147949
600.505005 7232.047363
600.927795 6994.957031
601.350525 7091.6875
601.773254 6888.929199
602.195862 6981.132324
602.618408 6778.197754
603.040955 6990.349121
603.46344 6808.197754
603.885925 6699.704102
604.30835 6600.362793
604.730652 6542.569824
605.152893 6526.383301
605.575195 6551.818848
605.997375 6413.01709
606.419495 6524.070801
606.841553 6544.882324
607.263672 6114.068848
607.685608 6325.029785
608.107605 6174.379883
608.52948 6160.464844
608.951294 6076.939453
609.373108 6060.691406
609.7948 6058.370605
610.216553 5849.275879
610.638123 5937.604004
611.059753 5946.897949
611.481262 6009.61377
611.902832 5784.150879
612.324219 5860.901855
612.745605 5930.632813
613.166931 5712.007324
613.588196 5574.583008
614.00946 5546.612793
614.430664 5670.098145
614.851807 5437.000977
615.272827 5462.663574
615.693909 5303.931152
616.114929 5516.304199
616.535889 5259.541016
616.956787 5201.10791
617.377563 5229.159668
617.79834 5020.950684
618.219055 4967.083008
618.639832 4941.311523
619.060364 4831.131836
619.481018 4833.478027
619.901611 4713.803711
620.322083 4695.019531
620.742493 4617.503906
621.162842 4532.880859
621.583191 4417.596191
622.003418 4499.954102
622.423706 4438.779785
622.843872 4431.719238
623.264038 4266.84082
623.684143 4255.054199
624.104126 4045.042725
624.52417 4092.271484
624.944031 3889.040039
625.364014 3874.846924
625.783752 3848.820801
626.203552 3825.155273
626.62323 3680.68042
627.042969 3652.235596
627.462585 3628.525635
627.882141 3578.717285
628.301697 3429.147217
628.72113 3412.514893
629.140625 3374.488281
629.559998 3426.771484
629.979309 3341.202881
630.39856 3155.55249
630.81781 3212.712891
631.237 3153.17041
631.656067 3246.041016
632.075195 2981.486816
632.494202 2995.805664
632.913208 3072.13501
633.332092 2835.794189
633.750977 2964.779297
634.169739 2768.844238
634.588562 2752.099365
635.007263 2699.453369
635.425964 2692.271729
635.844543 2689.87793
636.263123 2670.724854
636.681641 2656.356934
637.100037 2548.52832
637.518494 2603.656738
637.936829 2466.973145
638.355164 2322.873535
638.773438 2514.955811
639.19165 2349.309326
639.609863 2370.932373
640.027893 2320.469482
640.445984 2363.725098
640.863953 2190.575439
641.281921 2190.575439
641.699829 2192.982666
642.117676 2195.389893
642.535461 2048.431885
642.953247 2137.600342
643.370972 2209.831299
643.788635 2014.668213
644.206177 2077.361572
644.623718 2077.361572
645.04126 1884.310181
645.458618 1983.304199
645.876099 1867.397095
646.293396 1872.229736
646.710693 1864.980469
647.127991 1852.897339
647.545166 1814.21875
647.962341 1741.647339
648.379333 1799.709717
648.796448 1649.630371
649.213379 1635.091797
649.63031 1608.430542
650.04718 1664.166382
650.463989 1635.091797
650.880859 1671.433472
651.297546 1632.668335
651.714233 1508.978149
652.130859 1576.9104
652.547485 1550.22998
652.963928 1538.099365
653.380432 1453.13269
653.796814 1499.268921
654.213196 1385.092163
654.629578 1443.416138
655.045837 1351.049316
655.462036 1404.538574
655.878174 1397.246582
656.294312 1355.913452
656.710327 1423.979614
657.126404 1355.913452
657.542358 1329.156372
657.958252 1302.390015
658.374084 1212.287476
658.789917 1295.088379
659.205688 1258.569702
659.621338 1156.222534
660.037048 1119.635742
660.452637 1161.099487
660.868164 1187.91687
661.283691 1202.540161
661.699158 1117.195923
662.114502 1139.150879
662.529846 1007.320557
662.945129 1080.589355
663.360413 1053.73291
663.775635 958.433167
664.190674 1092.793579
664.605835 1007.320557
665.020813 955.987854
665.435791 926.638306
665.850769 933.976929
666.265625 995.101929
666.68042 904.61792
667.095215 902.171082
667.509949 887.486328
667.924622 931.530823
668.339233 848.312805
668.753784 892.381592
669.168335 853.21051
669.582825 919.299133
669.997192 804.215698
670.41156 811.567261
670.825867 772.350464
671.240173 801.76532
671.654358 715.937256
672.068481 747.828796
672.482605 782.15686
672.896667 757.638428
673.310669 711.029419
673.724609 671.754761
674.138489 647.196594
674.552307 760.090698
674.966064 698.758606
675.379822 657.020874
675.793579 637.370667
676.207153 637.370667
676.620789 639.827271
677.034241 593.136597
677.447754 617.7146
677.861206 598.052979
678.274597 575.926453
678.687866 615.257385
679.101135 575.926453
679.514404 553.79248
679.927551 578.385376
680.340698 568.549194
680.753723 625.086365
681.166748 566.090149
681.579712 492.270325
681.992615 539.03241
682.405457 566.090149
682.818298 563.630859
683.231018 482.421173
683.643738 487.345917
684.056335 509.50238
684.468994 494.73233
684.881531 445.474518
685.293945 543.952881
685.706482 462.719055
686.118774 521.808167
686.531128 410.971619
686.943481 531.651306
687.355713 514.425049
687.767883 435.618286
688.179932 440.5466
688.592041 361.649475
689.004089 386.315186
689.416016 396.179016
689.827881 484.883636
690.239868 438.082489
690.651611 571.008362
691.063354 521.808167
691.475098 423.296143
691.886719 378.916595
692.29834 383.848999
692.7099 396.179016
693.12146 398.64447
693.532837 376.450104
693.944214 383.848999
694.355652 383.848999
694.766846 462.719055
695.178101 346.845123
695.589294 391.247314
696.000366 322.164063
696.411438 280.183563
696.82251 369.050079
697.233459 346.845123
697.644409 346.845123
698.055298 383.848999
698.466064 322.164063
698.876831 356.715088
699.287537 401.110077
699.698181 361.649475
700.108826 267.831085
700.519348 312.288696
700.92981 275.243011
701.340271 317.226563
701.750732 324.63266
702.161011 277.71347
702.57135 282.653809
702.981567 314.75769
703.391724 302.412048
703.80188 334.505798
704.211914 280.183563
704.621948 225.814117
705.031921 265.36026
705.441895 238.175064
705.851746 233.230927
706.261536 225.814117
706.671265 248.06189
707.081055 213.450806
707.490662 317.226563
707.90033 270.301849
708.309814 270.301849
708.719299 260.418549
709.128784 299.942566
709.538147 243.118805
709.94751 260.418549
710.35675 223.341599
710.766052 225.814117
711.175171 206.031616
711.58429 92.157242
711.993347 156.547119
712.402405 280.183563
712.811401 314.75769
713.220276 196.137909
713.62915 255.476181
714.037964 225.814117
714.446777 253.004852
714.855408 277.71347
715.264099 136.742203
715.672668 220.86911
716.081177 218.396408
716.489746 198.611389
716.898132 275.243011
717.306519 139.218094
717.714844 223.341599
718.123108 166.44722
718.531372 220.86911
718.939514 191.190399
719.347595 176.345718
719.755676 116.930702
720.163696 196.137909
720.571716 181.294296
720.979614 156.547119
721.387451 136.742203
721.795227 126.837257
722.202942 191.190399
722.610718 74.809731
723.018311 141.694016
723.425903 201.0849
723.833374 173.871216
724.240906 129.31369
724.648376 131.789871
725.055725 168.922028
725.463013 126.837257
725.8703 193.6642
726.277466 134.266098
726.684631 109.499741
727.091797 87.201241
727.498779 84.723221
727.905823 104.545174
728.312805 161.497437
728.719666 124.360741
729.126526 161.497437
729.533264 104.545174
729.940063 173.871216
730.34668 129.31369
730.753357 163.972305
731.159851 121.884117
731.566406 57.457191
731.9729 107.022507
732.379272 154.07193
732.785645 223.341599
733.191895 124.360741
733.598206 129.31369
734.004333 168.922028
734.410522 50.018867
734.816528 62.415512
735.222656 99.590332
735.628662 109.499741
736.034546 104.545174
736.44043 67.373558
736.846252 92.157242
737.252014 109.499741
737.657715 72.331062
738.063354 161.497437
738.468933 111.976875
738.874512 47.539177
739.280029 94.635086
739.685486 131.789871
740.090881 72.331062
740.496216 124.360741
740.90155 69.852432
741.306702 146.645401
741.711914 45.05938
742.117004 114.453773
742.522095 92.157242
742.927124 126.837257
743.332031 67.373558
743.737 121.884117
744.141785 87.201241
744.546631 126.837257
744.951355 168.922028
745.356079 82.244965
745.76062 92.157242
746.165283 146.645401
746.569824 104.545174
746.974243 119.407524
747.378723 104.545174
747.78302 104.545174
748.187378 22.736969
748.591614 89.679291
748.99585 69.852432
749.399963 178.820129
749.804077 35.139431
750.20813 17.775339
750.612122 141.694016
751.016052 32.659122
751.419922 84.723221
751.823792 22.736969
752.227478 119.407524
752.631226 134.266098
753.034851 69.852432
753.438477 45.05938
753.842102 97.112686
754.245544 87.201241
754.648987 146.645401
755.052368 77.288284
755.45575 -16.968147
755.859009 82.244965
756.262268 109.499741
756.665405 74.809731
757.068542 69.852432
757.47168 57.457191
757.874634 37.619507
758.277588 89.679291
758.68042 173.871216
759.083374 159.022324
759.486084 134.266098
759.888916 290.063965
760.291504 314.75769
760.694214 410.971619
761.096802 324.63266
761.499268 183.768509
761.901733 168.922028
762.304199 228.28653
762.706543 230.75885
763.108826 114.453773
763.511108 72.331062
763.913208 77.288284
764.315369 47.539177
764.717529 -26.89864
765.119568 54.977806
765.521545 32.659122
765.923462 12.813156
766.325317 62.415512
766.727112 69.852432
767.128845 -21.933252
767.530518 82.244965
767.932251 32.659122
768.333862 47.539177
768.735413 -19.450647
769.136841 40.099613
769.538269 57.457191
769.939636 116.930702
770.341003 111.976875
770.742249 69.852432
771.143433 7.850694
771.544617 37.619507
771.94574 69.852432
772.346802 119.407524
772.747803 59.936474
773.148682 74.809731
773.549622 17.775339
773.950439 59.936474
774.351196 47.539177
774.751892 15.294299
775.152588 7.850694
775.553162 2.88768
775.953735 54.977806
776.354309 -21.933252
776.754639 12.813156
777.15509 64.894592
777.55542 20.256138
777.95575 20.256138
778.355896 -26.89864
778.756104 69.852432
779.156189 -14.485888
779.556274 25.217697
779.956299 57.457191
780.356201 17.775339
780.756165 62.415512
781.156006 5.369239
781.555786 -9.521411
781.955505 -21.933252
782.355225 27.698185
782.754761 32.659122
783.154358 92.157242
783.553894 2.88768
783.953369 -4.557488
784.352783 -79.061287
784.752075 97.112686
785.151367 54.977806
785.550598 32.659122
785.949768 64.894592
786.348877 27.698185
786.747986 -14.485888
787.147034 -24.415827
787.545959 52.498455
787.944885 -7.03933
788.34375 42.579617
788.742493 -36.830814
789.141235 -12.003596
789.539917 47.539177
789.938538 35.139431
790.337158 37.619507
790.735718 42.579617
791.134094 22.736969
791.532532 57.457191
791.930847 27.698185
792.329224 2.88768
792.727417 27.698185
793.12561 20.256138
793.523682 2.88768
793.921753 12.813156
794.319824 12.813156
794.717773 52.498455
795.115723 22.736969
795.51355 32.659122
795.911377 -46.764671
796.309082 -24.415827
796.706787 -39.314152
797.10437 50.018867
797.501953 10.33191
797.899536 -29.381559
798.296936 47.539177
798.694397 54.977806
799.091736 2.88768
799.489014 -59.184269
799.88623 10.33191
800.283447 25.217697
800.680542 42.579617
801.077637 -21.933252
801.47467 89.679291
801.871643 -29.381559
802.268555 37.619507
802.665405 62.415512
803.062256 37.619507
803.458923 47.539177
803.855652 64.894592
804.252258 37.619507
804.648804 -2.075616
805.04541 42.579617
805.441833 -24.415827
805.838257 -2.075616
806.234619 -59.184269
806.630859 10.33191
807.0271 -51.732166
807.423279 20.256138
807.819458 -41.797462
808.215515 -29.381559
808.611572 50.018867
809.007507 -2.075616
809.403381 -2.075616
809.799194 89.679291
810.195068 94.635086
810.590759 191.190399
810.98645 235.703049
811.38208 346.845123
811.777649 336.973938
812.173157 228.28653
812.568665 238.175064
812.96405 215.923584
813.359375 144.169815
813.754639 146.645401
814.149841 121.884117
814.545105 87.201241
814.940186 47.539177
815.335266 30.178703
815.730347 -21.933252
816.125244 12.813156
816.520203 84.723221
816.914978 25.217697
817.309753 -36.830814
817.704468 -12.003596
818.099182 -12.003596
818.493774 50.018867
818.888367 22.736969
819.282898 -12.003596
819.677307 74.809731
820.071716 45.05938
820.466003 25.217697
820.860291 -2.075616
821.254517 -59.184269
821.648743 40.099613
822.042786 5.369239
822.43689 27.698185
822.830872 5.369239
823.224792 25.217697
823.618774 -12.003596
824.012512 10.33191
824.406311 37.619507
824.799988 -51.732166
825.193665 62.415512
825.58728 27.698185
825.980835 79.766609
826.374329 0.406152
826.767761 57.457191
827.161194 10.33191
827.554443 94.635086
827.947754 20.256138
828.340942 15.294299
828.734131 32.659122
829.127136 27.698185
829.520264 77.288284
829.913208 2.88768
830.306152 45.05938
830.699097 134.266098
831.091797 37.619507
831.484619 27.698185
831.877319 52.498455
832.27002 42.579617
832.662537 27.698185
833.055054 54.977806
833.44751 -9.521411
833.839966 -46.764671
834.232361 35.139431
834.624634 10.33191
835.016907 15.294299
835.409058 17.775339
835.801208 -64.152954
836.193298 -2.075616
836.585327 -54.216141
836.977295 -64.152954
837.369202 -51.732166
837.761047 2.88768
838.152832 -9.521411
838.544617 -4.557488
838.936218 -9.521411
839.327942 -61.668556
839.719421 -31.864586
840.111023 -56.700218
840.50238 -2.075616
840.89386 -56.700218
841.285217 -9.521411
841.676453 -24.415827
842.067749 -49.248432
842.458862 -14.485888
842.849976 -9.521411
843.241028 -113.862389
843.632019 0.406152
844.022949 -29.381559
844.413879 -49.248432
844.804749 -24.415827
845.195496 -29.381559
845.586182 -14.485888
845.976807 42.579617
846.367432 -29.381559
846.757996 15.294299
847.148499 -41.797462
847.538879 -34.34758
847.92926 82.244965
848.319641 -4.557488
848.709839 -9.521411
849.100098 -14.485888
849.490234 -86.516884
849.88031 -29.381559
850.270325 -39.314152
850.660339 -21.933252
851.050171 12.813156
851.440125 47.539177
851.829895 -21.933252
852.219604 -29.381559
852.609314 -21.933252
852.998901 -86.516884
853.38855 35.139431
853.778015 -56.700218
854.16748 -91.487907
854.556885 0.406152
854.946228 -12.003596
855.335571 -26.89864
855.724731 -66.637321
856.113953 10.33191
856.503052 -89.002342
856.892151 -29.381559
857.281067 -14.485888
857.670105 -93.973442
858.05896 -91.487907
858.447754 -36.830814
858.836609 -24.415827
859.225281 -7.03933
859.613892 -24.415827
860.002502 -66.637321
860.391052 -12.003596
860.779541 -76.576256
861.167969 -64.152954
861.556335 42.579617
861.944702 17.775339
862.332947 -9.521411
862.721069 -41.797462
863.109253 -9.521411
863.497314 -21.933252
863.885376 7.850694
864.273315 62.415512
864.661255 40.099613
865.049072 10.33191
865.43689 27.698185
865.824707 -16.968147
866.21228 15.294299
866.599915 -14.485888
866.987488 0.406152
867.375061 -2.075616
867.762451 -46.764671
868.149841 -118.835632
868.53717 30.178703
868.924438 2.88768
869.311707 -46.764671
869.698853 -24.415827
870.085938 12.813156
870.472961 -26.89864
870.859985 -84.031532
871.246887 -59.184269
871.633789 -86.516884
872.020569 -41.797462
872.407349 40.099613
872.794067 -34.34758
873.180725 0.406152
873.567322 -44.281013
873.953796 -9.521411
874.340332 -49.248432
874.726624 -21.933252
875.113037 -84.031532
875.499329 15.294299
875.885559 -4.557488
876.271729 5.369239
876.657898 -61.668556
877.044006 -16.968147
877.429932 15.294299
877.815918 25.217697
878.201782 64.894592
878.587585 5.369239
878.973389 102.067871
879.35907 67.373558
879.744751 2.88768
880.13031 -36.830814
880.51593 12.813156
880.901367 20.256138
881.286804 -26.89864
881.67218 -46.764671
882.057434 5.369239
882.442749 -56.700218
882.827942 -31.864586
883.213013 -121.322479
883.598145 -49.248432
883.983154 -7.03933
884.368042 -51.732166
884.753052 -41.797462
885.137817 -79.061287
885.522644 -19.450647
885.907349 -39.314152
886.292053 -49.248432
886.676636 -29.381559
887.061157 37.619507
887.44574 32.659122
887.830078 -19.450647
888.214539 -36.830814
888.598816 -2.075616
888.983093 -54.216141
889.367249 -34.34758
889.751465 30.178703
890.135498 -81.546425
890.519531 -7.03933
890.903503 -21.933252
891.287415 -59.184269
891.671326 -71.606644
892.055054 -36.830814
892.438843 37.619507
892.82251 35.139431
893.206116 30.178703
893.589661 -7.03933
893.973206 47.539177
894.356628 2.88768
894.73999 27.698185
895.123352 74.809731
895.506592 -46.764671
895.889832 -36.830814
896.272949 -12.003596
896.656067 -16.968147
897.039063 22.736969
897.422058 -12.003596
897.804993 40.099613
898.187866 -46.764671
898.570618 -56.700218
898.953369 37.619507
899.336121 20.256138
899.718689 -4.557488
900.101257 -2.075616
900.483704 -9.521411
900.866211 -2.075616
901.248596 -101.430962
901.63092 -101.430962
902.013184 -51.732166
902.395386 -51.732166
902.777588 50.018867
903.159668 -74.091461
903.541687 -9.521411
903.923645 12.813156
904.305603 -26.89864
904.6875 -14.485888
905.069275 -7.03933
905.45105 -19.450647
905.832642 -46.764671
906.214294 -34.34758
906.595825 -59.184269
906.977417 -41.797462
907.358826 -2.075616
907.740234 -24.415827
908.121582 -49.248432
908.502869 -16.968147
908.884033 -16.968147
909.265198 -49.248432
909.646301 -91.487907
910.027344 -93.973442
910.408325 -14.485888
910.789246 -79.061287
911.170105 -7.03933
911.550903 -91.487907
911.931641 -61.668556
912.312317 -24.415827
912.692932 -21.933252
913.073547 10.33191
913.453979 -34.34758
913.834473 -29.381559
914.214783 -9.521411
914.595154 2.88768
914.975464 -39.314152
915.355652 22.736969
915.73584 -31.864586
916.115845 -44.281013
916.495972 -24.415827
916.875854 -81.546425
917.255859 -36.830814
917.63562 -46.764671
918.015503 -14.485888
918.395203 0.406152
918.774902 7.850694
919.15448 -39.314152
919.534058 -9.521411
919.913574 -41.797462
920.292969 -16.968147
920.672363 -31.864586
921.051636 -7.03933
921.430969 -54.216141
921.810181 -71.606644
922.189331 -4.557488
922.56842 -9.521411
922.947388 35.139431
923.326416 -14.485888
923.705261 35.139431
924.084106 -76.576256
924.462891 -12.003596
924.841675 -29.381559
925.220337 -21.933252
925.598938 -21.933252
925.977478 -89.002342
926.355957 32.659122
926.734436 -66.637321
927.112732 -111.375862
927.491089 -59.184269
927.869324 -31.864586
928.247559 -64.152954
928.625671 0.406152
929.003723 22.736969
929.381775 -79.061287
929.759705 -59.184269
930.137634 -84.031532
930.515381 -29.381559
930.89325 45.05938
931.270935 22.736969
931.64856 -108.88958
932.026123 -59.184269
932.403687 -19.450647
932.78125 5.369239
933.15863 35.139431
933.536011 -7.03933
933.913208 -89.002342
934.290527 17.775339
934.667664 -41.797462
935.0448 -69.121925
935.421814 -16.968147
935.798889 12.813156
936.175842 15.294299
936.552673 -46.764671
936.929504 -24.415827
937.306274 -61.668556
937.683044 -79.061287
938.05957 17.775339
938.436218 -133.758194
938.812744 -101.430962
939.189148 0.406152
939.565613 -69.121925
939.941956 -71.606644
940.318237 17.775339
940.694458 -36.830814
941.070557 -89.002342
941.446655 -14.485888
941.822693 -29.381559
942.198669 -16.968147
942.574646 -71.606644
942.950562 -26.89864
943.326294 -34.34758
943.702026 -91.487907
944.077698 -113.862389
944.453369 -46.764671
944.828918 47.539177
945.204468 -66.637321
945.579834 -39.314152
945.955261 -41.797462
946.330627 0.406152
946.705811 -19.450647
947.081055 22.736969
947.456177 -7.03933
947.831238 -9.521411
948.206238 10.33191
948.581238 -31.864586
948.956116 -31.864586
949.330933 -71.606644
949.705811 40.099613
950.080505 -46.764671
950.455139 -103.917061
950.829773 -84.031532
951.204346 5.369239
951.578735 -24.415827
951.953186 -56.700218
952.327515 -59.184269
952.701843 20.256138
953.076172 -4.557488
953.450195 -2.075616
953.824341 0.406152
954.198486 -21.933252
954.572449 0.406152
954.94635 -36.830814
955.320251 -66.637321
955.694092 2.88768
956.067871 -46.764671
956.441589 -49.248432
956.815125 -108.88958
957.188721 -69.121925
957.562256 -4.557488
957.93573 -76.576256
958.309021 -61.668556
958.682373 -7.03933
959.055664 20.256138
959.428955 5.369239
959.802063 -16.968147
960.17511 124.360741
960.548157 -59.184269
960.921143 -14.485888
961.294128 -21.933252
961.666809 -4.557488
962.039612 -46.764671
962.412415 7.850694
962.785095 -12.003596
963.157715 -4.557488
963.530151 -111.375862
963.902649 -7.03933
964.275146 -26.89864
964.647522 42.579617
965.019714 22.736969
965.392029 -2.075616
965.76416 -16.968147
966.136292 -21.933252
966.508423 -39.314152
966.880371 -98.945107
967.252319 37.619507
967.624207 -44.281013
967.996094 -46.764671
968.367737 -9.521411
968.739441 10.33191
969.111084 -9.521411
969.482666 -19.450647
969.854248 -49.248432
970.225586 -39.314152
970.596985 10.33191
970.968323 -21.933252
971.339661 -29.381559
971.710754 -96.459221
972.081909 -46.764671
972.453064 -96.459221
972.824097 -41.797462
973.194946 -89.002342
973.565918 5.369239
973.936768 -36.830814
974.307556 -41.797462
974.678284 15.294299
975.048828 5.369239
975.419495 -31.864586
975.790039 -14.485888
976.160522 -49.248432
976.530884 -46.764671
976.901245 -56.700218
977.271606 -14.485888
977.641846 -76.576256
978.012024 32.659122
978.382019 -14.485888
978.752136 -76.576256
979.122131 -14.485888
979.492065 -54.216141
979.861877 -61.668556
980.231689 -14.485888
980.60144 -66.637321
980.971191 12.813156
981.34082 27.698185
981.710266 -7.03933
982.079773 -74.091461
982.44928 -54.216141
982.818604 -26.89864
983.187866 -21.933252
983.557129 32.659122
983.926331 -36.830814
984.295471 -31.864586
984.664612 -79.061287
985.033569 -24.415827
985.402527 25.217697
985.771362 -26.89864
986.140259 -148.684509
986.508911 -14.485888
986.877625 -96.459221
987.246277 -116.349022
987.614929 30.178703
987.983459 -14.485888
988.351807 -56.700218
988.720215 -36.830814
989.088623 -51.732166
989.456909 -71.606644
989.825012 -49.248432
990.193115 10.33191
990.561279 -46.764671
990.929321 -51.732166
991.297302 27.698185
991.6651 25.217697
992.03302 -36.830814
992.400818 -51.732166
992.768494 32.659122
993.136047 -71.606644
993.503723 -36.830814
993.871277 -128.783539
994.23877 -81.546425
994.60614 -61.668556
994.97345 -61.668556
995.340759 -66.637321
995.708008 -39.314152
996.075195 -101.430962
996.4422 -56.700218
996.809265 20.256138
997.17627 -29.381559
997.543152 -29.381559
997.910095 -24.415827
998.276733 -66.637321
998.643494 27.698185
999.010193 -46.764671
999.376831 -84.031532
999.743286 -2.075616
1000.109802 -41.797462
1000.476257 -66.637321
1000.842651 5.369239
1001.208923 17.775339
1001.575134 2.88768
1001.941284 20.256138
1002.307434 -98.945107
1002.673523 -14.485888
1003.039429 -19.450647
1003.405334 -64.152954
1003.771179 -16.968147
1004.137024 15.294299
1004.502808 -64.152954
1004.868408 0.406152
1005.234009 -96.459221
1005.599609 -14.485888
1005.965149 -26.89864
1006.330444 40.099613
1006.695862 -34.34758
1007.061218 -12.003596
1007.426453 -34.34758
1007.791626 -126.296494
1008.156677 -76.576256
1008.521729 50.018867
1008.88678 -29.381559
1009.251709 -76.576256
1009.616577 -16.968147
1009.981384 -34.34758
1010.34613 5.369239
1010.710754 -9.521411
1011.075439 42.579617
1011.439941 -16.968147
1011.804443 -14.485888
1012.168884 -24.415827
1012.533325 -118.835632
1012.897522 -108.88958
1013.26178 -51.732166
1013.626038 10.33191
1013.990112 5.369239
1014.354187 20.256138
1014.71814 -41.797462
1015.082153 -29.381559
1015.446045 50.018867
1015.809937 -14.485888
1016.173523 27.698185
1016.53717 -7.03933
1016.900879 -39.314152
1017.264404 15.294299
1017.627991 -44.281013
1017.991333 -86.516884
1018.354675 -64.152954
1018.718018 -36.830814
1019.081299 -86.516884
1019.444397 57.457191
1019.807495 -46.764671
1020.170593 -71.606644
1020.533691 -16.968147
1020.896606 10.33191
1021.25946 -31.864586
1021.622253 -16.968147
1021.985046 -126.296494
1022.347778 -21.933252
1022.710327 -44.281013
1023.072876 -31.864586
1023.435364 -24.415827
1023.797852 -21.933252
1024.160278 -49.248432
1024.522461 -44.281013
1024.884766 -24.415827
1025.246948 -138.733154
1025.609131 -54.216141
1025.971069 -98.945107
1026.33313 -2.075616
1026.694946 -14.485888
1027.056885 -69.121925
1027.418823 -108.88958
1027.780396 -49.248432
1028.14209 -49.248432
1028.503784 -89.002342
1028.865479 -2.075616
1029.226807 -69.121925
1029.588135 -39.314152
1029.949707 -51.732166
1030.310913 -16.968147
1030.672241 -21.933252
1031.033325 -4.557488
1031.394531 62.415512
1031.755493 -2.075616
1032.116577 -4.557488
1032.477417 -71.606644
1032.838257 2.88768
1033.199097 -54.216141
1033.559937 -41.797462
1033.920654 10.33191
1034.281128 -66.637321
1034.641724 -19.450647
1035.002197 -26.89864
1035.362671 -93.973442
1035.7229 -91.487907
1036.083252 -64.152954
1036.443481 -49.248432
1036.803711 -74.091461
1037.16394 -49.248432
1037.523804 45.05938
1037.883789 -101.430962
1038.243774 22.736969
1038.603638 0.406152
1038.963257 -56.700218
1039.32312 -24.415827
1039.682861 -46.764671
