188.301102 0.0
188.764923 0.0
189.228699 -21.92569
189.692459 -56.69265
190.156158 -98.937538
190.619812 -128.776093
191.083435 -39.306591
191.547043 25.225117
192.01059 25.225117
192.474091 42.587036
192.937561 -16.96072
193.401001 17.782761
193.86441 64.902
194.327759 -2.068192
194.791077 40.107033
195.254349 -19.44322
195.717575 25.225117
196.180786 35.146851
196.643951 79.774162
197.107071 -26.891212
197.570145 15.301722
198.033203 45.066933
198.496216 10.339468
198.959167 0.413576
199.422089 2.895239
199.884979 -26.891212
200.347855 5.376663
200.810654 5.376663
201.273422 -46.757107
201.73616 42.587036
202.198853 -49.240868
202.661514 -14.478327
203.12413 -91.480339
203.5867 50.026287
204.04924 -93.966003
204.511734 72.338608
204.974197 -69.114494
205.436615 -44.273586
205.899002 -41.790035
206.361343 -34.340149
206.823654 2.895239
207.285919 -29.374132
207.748123 -74.083893
208.210327 5.376663
208.672485 59.94389
209.134583 -39.306591
209.596649 7.858117
210.05867 -26.891212
210.520676 -84.024094
210.982635 -86.509453
211.444534 -7.031905
211.906403 -74.083893
212.36824 -46.757107
212.830048 -39.306591
213.291779 -61.661121
213.753494 -54.20871
214.215179 -16.96072
214.676819 -44.273586
215.138412 -7.031905
215.59996 -49.240868
216.061493 -64.145386
216.522949 -79.053848
216.984406 -51.724735
217.445801 -14.478327
217.907166 0.413576
218.368484 -49.240868
218.829773 -49.240868
219.291031 -19.44322
219.752228 -21.92569
220.213379 -39.306591
220.6745 -7.031905
221.135574 -39.306591
221.596634 -64.145386
222.057648 5.376663
222.5186 10.339468
222.979553 -26.891212
223.44043 -9.513986
223.901276 42.587036
224.362076 -41.790035
224.822845 -71.599205
225.283569 -14.478327
225.744278 -79.053848
226.20491 -39.306591
226.665512 -91.480339
227.126114 27.70574
227.586639 -24.4084
228.047119 -36.823387
228.507568 -46.757107
228.967972 -51.724735
229.428345 -86.509453
229.888687 -11.996171
230.348984 -14.478327
230.809219 -14.478327
231.26944 -29.374132
231.729614 -59.176838
232.189758 -44.273586
232.649841 -56.69265
233.109894 -54.20871
233.569901 -61.661121
234.029892 -34.340149
234.489822 -71.599205
234.949707 -61.661121
235.409561 -56.69265
235.869385 -54.20871
236.329163 -31.857023
236.788895 2.895239
237.248581 22.74439
237.708237 -61.661121
238.167847 -16.96072
238.627441 7.858117
239.08696 -34.340149
239.546463 5.376663
240.00592 -88.994911
240.465332 -16.96072
240.924698 -34.340149
241.384033 -61.661121
241.843338 -7.031905
242.302597 -16.96072
242.76181 -69.114494
243.220993 25.225117
243.680115 -24.4084
244.139221 57.464607
244.598282 -108.882004
245.057297 -118.828194
245.516266 -79.053848
245.975189 27.70574
246.434082 -34.340149
246.892944 -64.145386
247.351761 74.817139
247.810516 -36.823387
248.269272 -41.790035
248.727951 -46.757107
249.1866 -39.306591
249.645218 45.066933
250.10379 -34.340149
250.562317 -31.857023
251.020813 -19.44322
251.479279 -4.549929
251.937668 -44.273586
252.396057 -86.509453
252.854385 -7.031905
253.312683 10.339468
253.77092 -54.20871
254.229126 40.107033
254.687302 -26.891212
255.145432 -26.891212
255.6035 27.70574
256.061584 -59.176838
256.519592 -11.996171
256.97757 -11.996171
257.435455 -41.790035
257.893372 -11.996171
258.351196 47.546593
258.80899 -39.306591
259.266754 -14.478327
259.724487 -29.374132
260.18219 -26.891212
260.639832 -7.031905
261.097443 -4.549929
261.554993 59.94389
262.012512 -4.549929
262.469971 -24.4084
262.927429 -46.757107
263.384827 -14.478327
263.842194 -16.96072
264.29953 0.413576
264.756805 2.895239
265.21405 -71.599205
265.671234 -31.857023
266.128387 -9.513986
266.58551 -74.083893
267.042572 -88.994911
267.499573 -126.288918
267.956604 15.301722
268.413574 -49.240868
268.870483 5.376663
269.327362 -36.823387
269.78418 -106.395836
270.240936 -61.661121
270.697693 -19.44322
271.154419 -2.068192
271.611053 -26.891212
272.067688 -14.478327
272.524292 -34.340149
272.980835 -88.994911
273.437347 -29.374132
273.893799 -24.4084
274.35025 32.666542
274.80661 -14.478327
275.262939 -56.69265
275.719238 -11.996171
276.175507 -81.538857
276.631714 -16.96072
277.087891 -61.661121
277.544067 2.895239
278.000122 -71.599205
278.456177 -19.44322
278.912201 -14.478327
279.368164 -19.44322
279.824097 -56.69265
280.279968 -49.240868
280.73584 -66.62989
281.19162 77.2957
281.6474 -26.891212
282.103149 -71.599205
282.558838 -49.240868
283.014465 -71.599205
283.470062 -51.724735
283.925629 12.820714
284.381134 -41.790035
284.836639 -71.599205
285.292053 -49.240868
285.747467 -21.92569
286.20282 -2.068192
286.658142 -56.69265
287.113434 -46.757107
287.568634 30.186123
288.023804 -71.599205
288.478973 0.413576
288.934113 -31.857023
289.38913 7.858117
289.844208 -71.599205
290.299164 20.263695
290.754089 47.546593
291.208984 7.858117
291.663879 64.902
292.118683 -14.478327
292.573456 -29.374132
293.028198 17.782761
293.482849 -54.20871
293.937561 -29.374132
294.392151 -16.96072
294.846741 -64.145386
295.301239 -39.306591
295.755737 -24.4084
296.210175 -34.340149
296.664581 -7.031905
297.118958 47.546593
297.573242 -46.757107
298.027557 -59.176838
298.481812 0.413576
298.935974 15.301722
299.390137 -56.69265
299.844238 12.820714
300.29834 -41.790035
300.75235 -98.937538
301.20636 -31.857023
301.660278 -79.053848
302.114197 -51.724735
302.568054 -51.724735
303.021881 -34.340149
303.475677 0.413576
303.929413 22.74439
304.383118 -39.306591
304.836761 -44.273586
305.290375 37.62706
305.743958 -46.757107
306.19751 5.376663
306.65097 -39.306591
307.104431 -44.273586
307.5578 -4.549929
308.011169 -4.549929
308.464508 25.225117
308.917755 10.339468
309.371063 -81.538857
309.824219 17.782761
310.277374 -61.661121
310.730499 47.546593
311.183563 -41.790035
311.636597 30.186123
312.089569 -41.790035
312.542511 -76.568817
312.995422 -84.024094
313.448273 -103.909622
313.901093 -56.69265
314.353882 10.339468
314.80658 10.339468
315.259308 -49.240868
315.711975 -71.599205
316.164581 -46.757107
316.617126 -49.240868
317.069672 64.902
317.522156 17.782761
317.974579 32.666542
318.427002 12.820714
318.879333 -24.4084
319.331665 -46.757107
319.783936 -66.62989
320.236176 -36.823387
320.688354 -46.757107
321.140503 -74.083893
321.592651 -66.62989
322.044647 -19.44322
322.496704 47.546593
322.948639 -51.724735
323.400604 -4.549929
323.852509 89.686836
324.304352 -31.857023
324.756165 2.895239
325.207916 -21.92569
325.659668 -36.823387
326.111328 40.107033
326.562988 -54.20871
327.014557 -4.549929
327.466156 22.74439
327.917664 -71.599205
328.36911 -7.031905
328.820557 -26.891212
329.271942 10.339468
329.723297 -11.996171
330.174561 -14.478327
330.625854 2.895239
331.077026 -4.549929
331.528229 5.376663
331.97937 20.263695
332.43045 -49.240868
332.8815 -24.4084
333.332489 -56.69265
333.783478 -26.891212
334.234406 -36.823387
334.685303 -31.857023
335.136078 -2.068192
335.586914 -79.053848
336.037659 -79.053848
336.488342 -69.114494
336.939026 -66.62989
337.389648 -31.857023
337.84024 -49.240868
338.290771 -21.92569
338.741272 -118.828194
339.191681 -46.757107
339.64212 -46.757107
340.092468 25.225117
340.542816 20.263695
340.993103 -4.549929
341.443329 67.380974
341.893555 -49.240868
342.343689 -2.068192
342.793793 52.505875
343.243866 12.820714
343.693878 -69.114494
344.14389 -36.823387
344.593842 2.895239
345.043732 47.546593
345.493591 27.70574
345.943359 12.820714
346.393158 -24.4084
346.842896 -26.891212
347.292542 -39.306591
347.742218 -2.068192
348.191803 -69.114494
348.641357 -59.176838
349.090881 -59.176838
349.540314 7.858117
349.989777 -66.62989
350.439148 -56.69265
350.888489 -19.44322
351.337799 -69.114494
351.787048 -66.62989
352.236267 -26.891212
352.685425 -19.44322
353.134552 -71.599205
353.583649 -74.083893
354.032684 -29.374132
354.481659 -2.068192
354.930634 -14.478327
355.379517 -71.599205
355.82843 -136.238113
356.277222 -41.790035
356.726013 10.339468
357.174774 -31.857023
357.623444 -93.966003
358.072113 -16.96072
358.520721 -21.92569
358.969299 30.186123
359.417786 -4.549929
359.866302 -2.068192
360.314697 -9.513986
360.763123 -69.114494
361.211456 -11.996171
361.65976 -2.068192
362.108032 -121.315033
362.556244 -44.273586
363.004456 -59.176838
363.452576 -76.568817
363.900696 -26.891212
364.348663 -4.549929
364.796722 10.339468
365.24469 7.858117
365.692596 -111.368423
366.140472 15.301722
366.588287 -84.024094
367.036102 10.339468
367.483826 -66.62989
367.931549 0.413576
368.379181 7.858117
368.826843 -59.176838
369.274384 -21.92569
369.721924 2.895239
370.169403 -41.790035
370.616821 -49.240868
371.06427 -74.083893
371.511566 -31.857023
371.958923 -54.20871
372.406158 -49.240868
372.853424 -9.513986
373.300568 -59.176838
373.747711 -76.568817
374.194794 -9.513986
374.641846 -34.340149
375.088898 -54.20871
375.535828 -69.114494
375.982758 -49.240868
376.429596 -34.340149
376.876465 -4.549929
377.323242 30.186123
377.769989 -34.340149
378.216675 40.107033
378.66333 -24.4084
379.109985 -31.857023
379.556519 -86.509453
380.003052 -11.996171
380.449524 -84.024094
380.895996 -71.599205
381.342377 -31.857023
381.788727 -81.538857
382.235046 -34.340149
382.681274 -21.92569
383.127533 -11.996171
383.573669 -4.549929
384.019836 -36.823387
384.465912 -21.92569
384.911957 32.666542
385.357971 42.587036
385.803925 -26.891212
386.249847 -7.031905
386.695679 -29.374132
387.141541 -34.340149
387.587311 -24.4084
388.033051 20.263695
388.478729 10.339468
388.924408 5.376663
389.369995 -9.513986
389.815552 -29.374132
390.261078 -19.44322
390.706543 10.339468
391.152008 2.895239
391.597351 -11.996171
392.042725 -46.757107
392.487976 -7.031905
392.933289 -19.44322
393.378479 -29.374132
393.823639 -71.599205
394.268768 5.376663
394.713837 -14.478327
395.158905 -46.757107
395.603851 22.74439
396.048798 -61.661121
396.493683 -51.724735
396.938568 -21.92569
397.383392 -24.4084
397.828156 -16.96072
398.272888 -21.92569
398.71756 0.413576
399.162201 -34.340149
399.606781 -34.340149
400.051361 15.301722
400.495819 -19.44322
400.940308 20.263695
401.384705 27.70574
401.829102 72.338608
402.273438 109.507156
402.717682 102.075279
403.161926 295.010986
403.60611 963.330811
404.050293 2709.034912
404.494385 4676.240234
404.938446 5525.638184
405.382477 4441.140137
405.826447 2747.321777
406.270386 1850.487549
406.714233 1380.237061
407.158081 970.665649
407.601868 850.769104
408.045624 855.666687
408.489319 642.291138
408.933014 507.048248
409.376617 391.2547
409.82019 272.779877
410.263702 248.06929
410.707184 144.177368
411.150635 82.25238
411.594025 203.565704
412.037384 191.197937
412.480682 196.145187
412.923981 210.985336
413.367126 74.817139
413.810333 139.225632
414.253479 206.039017
414.696533 186.250015
415.139587 228.294052
415.582581 139.225632
416.025543 144.177368
416.468414 292.541229
416.911285 290.07135
417.354065 262.896973
417.796875 307.358093
418.239594 220.876511
418.682281 235.710434
419.124908 297.480652
419.567505 329.576935
420.010071 366.590637
420.452545 265.367645
420.89502 290.07135
421.337372 314.76532
421.779785 369.057465
422.222107 322.171448
422.664368 312.296326
423.106628 433.161652
423.548798 376.457489
423.990967 398.6521
424.433044 381.390381
424.875092 423.303528
425.317078 361.656891
425.759064 418.373871
426.200989 408.513763
426.642853 521.815491
427.084686 470.115356
427.526459 534.119202
427.968201 499.663513
428.409912 524.276428
428.851563 514.432434
429.293121 575.933777
429.734711 573.474792
430.176239 605.434082
430.617706 566.097534
431.059113 580.851501
431.500488 541.500061
431.941833 556.259583
432.383087 519.354492
432.824341 681.583008
433.265533 715.94458
433.706726 821.375427
434.147827 977.999512
434.588867 1698.080688
435.029877 4582.259277
435.470825 10436.232422
435.911804 14837.322266
436.352661 15127.285156
436.793518 10404.770508
437.234283 7022.608887
437.675049 5355.315918
438.115723 3962.349609
438.556396 2469.380615
438.99704 1523.547607
439.437561 1073.273315
439.878113 867.90979
440.318573 897.283875
440.759033 818.925354
441.199341 809.124146
441.639709 765.002319
442.079956 765.002319
442.520264 686.492981
442.96051 821.375427
443.400604 723.305359
443.840759 765.002319
444.280762 814.024902
444.720825 872.806091
445.160767 772.357788
445.600739 836.073853
446.040558 767.454285
446.480438 831.174622
446.920258 750.288757
447.359955 828.724915
447.799713 730.665588
448.239319 850.769104
448.678955 853.218079
449.1185 718.398376
449.558014 791.968994
449.997498 799.321838
450.436951 794.420044
450.876343 821.375427
451.315674 774.80957
451.754974 831.174622
452.194183 799.321838
452.633392 811.574585
453.07251 752.741211
453.511688 774.80957
453.950684 791.968994
454.38974 855.666687
454.828735 796.870972
455.267639 848.320068
455.706543 791.968994
456.145325 688.947571
456.584137 806.673645
457.022858 679.12793
457.461578 755.19342
457.900208 701.220337
458.338867 674.217468
458.777405 728.21228
459.215912 831.174622
459.654388 742.930603
460.092773 720.85199
460.531189 742.930603
460.969513 826.275085
461.407806 701.220337
461.846008 816.475159
462.284241 691.402283
462.722351 713.490723
463.160461 745.383362
463.598541 703.674683
464.03653 723.305359
464.474518 769.90625
464.912384 801.772644
465.350281 674.217468
465.788086 782.164185
466.225891 607.891907
466.663605 791.968994
467.101318 767.454285
467.539001 706.128601
467.976563 745.383362
468.414124 723.305359
468.851593 735.57196
469.289063 659.484192
469.72644 698.765991
470.163849 679.12793
470.601135 664.395691
471.038422 691.402283
471.475677 720.85199
471.912811 632.464722
472.350006 676.672729
472.787048 772.357788
473.224121 796.870972
473.661072 769.90625
474.098053 664.395691
474.534943 794.420044
474.971802 750.288757
475.40863 760.098022
475.845367 769.90625
476.282104 799.321838
476.71875 765.002319
477.155426 649.660217
477.591949 779.712708
478.028503 750.288757
478.464966 637.377991
478.901428 806.673645
479.33786 855.666687
479.77417 804.223267
480.21051 921.752991
480.646698 904.62561
481.082947 1156.230103
481.519073 1158.668335
481.9552 1163.545166
482.391266 1491.993408
482.827301 1661.750977
483.263306 1831.150024
483.699188 2349.316162
484.135101 2598.871338
484.570923 2991.040039
485.006744 3388.75708
485.442413 3761.23877
485.878174 4351.672852
486.313782 4929.602539
486.74939 5175.395508
487.184998 5425.341309
487.620453 5572.259766
488.055939 5474.333984
488.491333 5434.674805
488.926727 5149.669922
489.36203 5011.591309
489.797302 4854.59082
490.232513 4713.810547
490.667755 4368.15918
491.102905 4191.392578
491.537964 4203.185547
491.973022 4054.497314
492.40799 3801.491699
492.842957 3737.553711
493.277832 3505.154053
493.712738 3479.036133
494.147491 3093.599365
494.582275 3010.128906
495.017029 2943.301025
495.45166 2833.411621
495.886292 2728.18042
496.320831 2663.548096
496.755402 2445.380859
497.18985 2346.91333
497.624298 2245.931641
498.058655 2106.288574
498.493042 1918.133423
498.927368 1881.901367
499.361572 1707.765991
499.795807 1671.440674
500.229919 1593.891602
500.664063 1462.85498
501.098083 1324.297974
501.532104 1178.17334
501.966064 1109.883301
502.399994 973.110474
502.833893 926.645569
503.2677 850.769104
503.701477 865.461304
504.135193 799.321838
504.568909 681.583008
505.002502 684.038025
505.436127 566.097534
505.869629 588.227173
506.303162 543.960266
506.736603 467.652374
507.169983 440.553955
507.603363 551.340271
508.036621 359.189728
508.46994 445.481903
508.903107 484.890991
509.336304 494.739716
509.769379 502.125031
510.202484 479.966309
510.635529 403.582977
511.068481 354.255127
511.501434 349.32016
511.934265 354.255127
512.367126 415.90921
512.799927 314.76532
513.232605 317.233948
513.665344 410.979004
514.097961 403.582977
514.530579 307.358093
514.963135 403.582977
515.395691 359.189728
515.828064 285.131348
516.260498 327.108551
516.692871 329.576935
517.125183 334.513184
517.557373 208.512222
517.989624 270.309235
518.421753 223.349121
518.853943 265.367645
519.286072 210.985336
519.718018 262.896973
520.150024 230.766113
520.581909 141.701553
521.013855 262.896973
521.445679 243.126205
521.877502 166.45462
522.309204 183.775909
522.740906 134.273499
523.172546 178.827652
523.604187 223.349121
524.035767 201.092285
524.467224 166.45462
524.898682 228.294052
525.330078 173.878754
525.761475 240.654388
526.192749 215.930984
526.624023 240.654388
527.055237 257.954803
527.486389 168.929428
527.917542 223.349121
528.348572 265.367645
528.779663 314.76532
529.210571 356.722473
529.641541 280.191223
530.072388 262.896973
530.503235 272.779877
530.934082 336.981293
531.364746 327.108551
531.795532 312.296326
532.226135 438.089874
532.656738 477.503723
533.08728 718.398376
533.517822 933.984253
533.948242 1039.087036
534.378662 904.62561
534.809082 919.306458
535.239319 1002.440857
535.669617 1046.413818
536.099792 1119.643066
536.529968 1321.864868
536.960083 1647.2146
537.390137 2026.735352
537.82019 2510.166016
538.250183 3107.901611
538.680115 3498.031494
539.109985 4153.645508
539.539795 4889.758789
539.969543 6410.709473
540.399292 8123.587402
540.828979 10956.668945
541.258606 14243.350586
541.688171 18452.345703
542.117737 21052.083984
542.547302 21435.869141
542.976685 21490.720703
543.406128 21499.496094
543.835388 21769.453125
544.264771 21852.886719
544.69397 21703.597656
545.12323 22809.087891
545.552307 29610.462891
545.981506 38658.832031
546.410583 44509.023438
546.839539 39278.585938
547.268555 29172.003906
547.697449 24867.330078
548.126282 22872.908203
548.555054 21089.353516
548.983887 18371.464844
549.412598 15465.266602
549.841309 12676.80957
550.269958 10781.887695
550.698486 9254.068359
551.127075 8335.841797
551.555481 7335.500488
551.983948 6591.124512
552.412292 5893.455566
552.840698 5133.295898
553.26886 4605.761719
553.697205 4113.524902
554.125366 3531.265625
554.553467 3165.088867
554.981628 2778.418945
555.409607 2538.94458
555.837646 2147.241699
556.265564 1881.901367
556.693481 1579.342773
557.121338 1433.705933
557.549133 1212.294678
557.976929 1209.85791
558.404602 963.330811
558.832275 870.358093
559.259888 863.012817
559.687439 911.966248
560.114929 789.517822
560.542419 723.305359
560.969788 708.582703
561.397156 681.583008
561.824524 630.007813
562.25177 607.891907
562.679016 546.420349
563.10614 539.039795
563.533264 556.259583
563.960327 443.017975
564.387329 378.923981
564.814331 425.768188
565.241272 447.945709
565.668213 467.652374
566.094971 393.720581
566.52179 489.815521
566.948425 381.390381
567.375183 336.981293
567.801819 364.123932
568.228394 364.123932
568.654846 435.625641
569.081421 398.6521
569.507874 292.541229
569.934265 322.171448
570.360596 364.123932
570.786865 282.661194
571.213074 327.108551
571.639282 240.654388
572.06543 314.76532
572.491516 257.954803
572.917603 168.929428
573.343567 341.917236
573.769531 280.191223
574.195435 344.385071
574.621277 336.981293
575.047119 322.171448
575.472839 539.039795
575.89856 477.503723
576.324158 1336.462036
576.749817 2885.983154
577.175293 4165.442871
577.60083 4445.847168
578.026306 3115.051758
578.451721 3098.366943
578.877136 4358.73877
579.302429 5602.553711
579.727661 5860.90918
580.152832 4542.293945
580.578064 4002.526367
581.003113 3595.329834
581.428223 3545.505371
581.853271 3540.759521
582.278198 3604.817627
582.703125 3801.491699
583.12793 3832.262695
583.552795 3997.800293
583.977539 4153.645508
584.402283 4115.885254
584.826965 4030.877197
585.251587 4059.220459
585.676208 3962.349609
586.100647 3879.585449
586.525208 4000.163574
586.949524 4563.453613
587.373962 5037.347168
587.798218 5268.89502
588.222534 4751.369141
588.646729 4266.848145
589.070984 3673.577393
589.495117 3384.003174
589.919128 3253.188232
590.343201 3126.967529
590.767151 2993.42627
591.191101 2730.573242
591.61499 2759.283203
592.038818 2778.418945
592.462524 3155.560059
592.886292 3495.657471
593.310059 3742.29126
593.733582 3782.551025
594.157227 3424.403076
594.58075 3122.201416
595.004272 2701.854004
595.427673 2558.125732
595.851074 2390.15625
596.274353 2060.494141
596.697632 1956.763672
597.120911 1731.973633
597.544067 1724.712158
597.967224 1736.814331
598.39032 1843.23645
598.813354 1961.590942
599.236328 2118.335693
599.659241 2250.74292
600.082153 2327.6875
600.505005 2212.245117
600.927795 1985.724609
601.350525 1736.814331
601.773254 1639.945557
602.195862 1513.839844
602.618408 1363.216431
603.040955 1278.055908
603.46344 1117.203247
603.885925 1100.122559
604.30835 936.430359
604.730652 992.665222
605.152893 1061.065552
605.575195 1083.03772
605.997375 1146.47522
606.419495 1222.040894
606.841553 1404.545776
607.263672 1525.973999
607.685608 1625.405273
608.107605 1886.733398
608.52948 2334.897949
608.951294 2845.362061
609.373108 3578.724365
609.7948 4840.520508
610.216553 7165.345215
610.638123 11752.005859
611.059753 18227.189453
611.481262 24776.669922
611.902832 26324.779297
612.324219 23747.595703
612.745605 20116.738281
613.166931 17787.792969
613.588196 16797.113281
614.00946 15822.681641
614.430664 14881.272461
614.851807 13303.422852
615.272827 11598.148438
615.693909 9853.115234
616.114929 8032.191895
616.535889 6835.88916
616.956787 5884.156738
617.377563 5095.862305
617.79834 4507.017578
618.219055 3872.488281
618.639832 3540.759521
619.060364 3229.385498
619.481018 2950.463623
619.901611 2854.921631
620.322083 2797.550049
620.742493 2677.915039
621.162842 2797.550049
621.583191 2641.994629
622.003418 2756.891357
622.423706 2749.7146
622.843872 2776.026855
623.264038 2831.020996
623.684143 2737.751953
624.104126 2909.869629
624.52417 2814.286865
624.944031 2871.648438
625.364014 2771.243896
625.783752 2823.849609
626.203552 2838.192139
626.62323 2778.418945
627.042969 2771.243896
627.462585 2651.574463
627.882141 2589.285645
628.301697 2481.378174
628.72113 2303.649658
629.140625 2260.364502
629.559998 2337.301025
629.979309 2409.368408
630.39856 2680.308838
630.81781 3134.116943
631.237 3507.52832
631.656067 3338.831787
632.075195 2869.258789
632.494202 2310.861816
632.913208 2087.01001
633.332092 1874.653198
633.750977 1428.846558
634.169739 1394.82312
634.588562 1170.859741
635.007263 929.091858
635.425964 757.645752
635.844543 738.02478
636.263123 588.227173
636.681641 548.880371
637.100037 529.197998
637.518494 386.322571
637.936829 452.872803
638.355164 418.373871
638.773438 396.186401
639.19165 336.981293
639.609863 415.90921
640.027893 317.233948
640.445984 334.513184
640.863953 339.44931
641.281921 302.419434
641.699829 356.722473
642.117676 267.838501
642.535461 349.32016
642.953247 371.524231
643.370972 297.480652
643.788635 290.07135
644.206177 418.373871
644.623718 351.787689
645.04126 356.722473
645.458618 302.419434
645.876099 290.07135
646.293396 312.296326
646.710693 383.856384
647.127991 302.419434
647.545166 329.576935
647.962341 312.296326
648.379333 329.576935
648.796448 430.697235
649.213379 425.768188
649.63031 440.553955
650.04718 561.178711
650.463989 691.402283
650.880859 799.321838
651.297546 809.124146
651.714233 804.223267
652.130859 590.685547
652.547485 637.377991
652.963928 637.377991
653.380432 622.636597
653.796814 593.143921
654.213196 521.815491
654.629578 408.513763
655.045837 482.428864
655.462036 423.303528
655.878174 396.186401
656.294312 452.872803
656.710327 425.768188
657.126404 408.513763
657.542358 391.2547
657.958252 415.90921
658.374084 354.255127
658.789917 366.590637
659.205688 341.917236
659.621338 327.108551
660.037048 243.126205
660.452637 238.182465
660.868164 275.250427
661.283691 290.07135
661.699158 260.425964
662.114502 413.444153
662.529846 482.428864
662.945129 502.125031
663.360413 443.017975
663.775635 410.979004
664.190674 435.625641
664.605835 292.541229
665.020813 334.513184
665.435791 302.419434
665.850769 299.949951
666.265625 260.425964
666.68042 265.367645
667.095215 218.403793
667.509949 240.654388
667.924622 210.985336
668.339233 285.131348
668.753784 181.301697
669.168335 196.145187
669.582825 193.671738
669.997192 240.654388
670.41156 230.766113
670.825867 218.403793
671.240173 250.540817
671.654358 166.45462
672.068481 188.724014
672.482605 188.724014
672.896667 198.618774
673.310669 186.250015
673.724609 240.654388
674.138489 183.775909
674.552307 181.301697
674.966064 114.461319
675.379822 109.507156
675.793579 64.902
676.207153 218.403793
676.620789 131.797287
677.034241 126.844803
677.447754 136.749619
677.861206 186.250015
678.274597 149.128418
678.687866 149.128418
679.101135 203.565704
679.514404 191.197937
679.927551 114.461319
680.340698 94.642494
680.753723 141.701553
681.166748 225.82164
681.579712 129.320953
681.992615 67.380974
682.405457 228.294052
682.818298 166.45462
683.231018 146.652802
683.643738 124.368286
684.056335 104.552719
684.468994 161.504974
684.881531 92.16465
685.293945 149.128418
685.706482 201.092285
686.118774 193.671738
686.531128 134.273499
686.943481 196.145187
687.355713 317.233948
687.767883 428.232758
688.179932 295.010986
688.592041 386.322571
689.004089 327.108551
689.416016 317.233948
689.827881 228.294052
690.239868 215.930984
690.651611 131.797287
691.063354 183.775909
691.475098 136.749619
691.886719 109.507156
692.29834 131.797287
692.7099 62.423065
693.12146 176.353241
693.532837 213.458069
693.944214 270.309235
694.355652 307.358093
694.766846 257.954803
695.178101 126.844803
695.589294 50.026287
696.000366 7.858117
696.411438 146.652802
696.82251 139.225632
697.233459 114.461319
697.644409 25.225117
698.055298 27.70574
698.466064 15.301722
698.876831 50.026287
699.287537 52.505875
699.698181 27.70574
700.108826 -36.823387
700.519348 -36.823387
700.92981 72.338608
701.340271 82.25238
701.750732 -29.374132
702.161011 62.423065
702.57135 27.70574
702.981567 22.74439
703.391724 116.93811
703.80188 129.320953
704.211914 107.029915
704.621948 111.984283
705.031921 99.59774
705.441895 186.250015
705.851746 215.930984
706.261536 332.044983
706.671265 487.353302
707.081055 588.227173
707.490662 644.747559
707.90033 686.492981
708.309814 642.291138
708.719299 823.825134
709.128784 804.223267
709.538147 914.413086
709.94751 887.493958
710.35675 723.305359
710.766052 583.310242
711.175171 489.815521
711.58429 536.579407
711.993347 647.203979
712.402405 767.454285
712.811401 738.02478
713.220276 703.674683
713.62915 457.799805
714.037964 408.513763
714.446777 312.296326
714.855408 235.710434
715.264099 292.541229
715.672668 196.145187
716.081177 99.59774
716.489746 94.642494
716.898132 104.552719
717.306519 84.730637
717.714844 82.25238
718.123108 54.985359
718.531372 -36.823387
718.939514 15.301722
719.347595 111.984283
719.755676 42.587036
720.163696 10.339468
720.571716 -29.374132
720.979614 42.587036
721.387451 42.587036
721.795227 -9.513986
722.202942 25.225117
722.610718 10.339468
723.018311 47.546593
723.425903 -9.513986
723.833374 -36.823387
724.240906 69.859848
724.648376 32.666542
725.055725 2.895239
725.463013 -14.478327
725.8703 -49.240868
726.277466 -26.891212
726.684631 -71.599205
727.091797 -54.20871
727.498779 -21.92569
727.905823 -41.790035
728.312805 7.858117
728.719666 -24.4084
729.126526 15.301722
729.533264 -14.478327
729.940063 -21.92569
730.34668 15.301722
730.753357 52.505875
731.159851 27.70574
731.566406 -44.273586
731.9729 7.858117
732.379272 -2.068192
732.785645 -34.340149
733.191895 0.413576
733.598206 -71.599205
734.004333 -31.857023
734.410522 -59.176838
734.816528 20.263695
735.222656 45.066933
735.628662 10.339468
736.034546 7.858117
736.44043 -21.92569
736.846252 -61.661121
737.252014 92.16465
737.657715 -51.724735
738.063354 -29.374132
738.468933 -54.20871
738.874512 -111.368423
739.280029 -14.478327
739.685486 -31.857023
740.090881 -74.083893
740.496216 -59.176838
740.90155 -7.031905
741.306702 -51.724735
741.711914 -29.374132
742.117004 -14.478327
742.522095 47.546593
742.927124 32.666542
743.332031 -51.724735
743.737 -31.857023
744.141785 -11.996171
744.546631 -4.549929
744.951355 42.587036
745.356079 10.339468
745.76062 -9.513986
746.165283 -91.480339
746.569824 17.782761
746.974243 15.301722
747.378723 20.263695
747.78302 -29.374132
748.187378 -4.549929
748.591614 -64.145386
748.99585 -11.996171
749.399963 -9.513986
749.804077 -26.891212
750.20813 35.146851
750.612122 -49.240868
751.016052 47.546593
751.419922 -16.96072
751.823792 -29.374132
752.227478 2.895239
752.631226 -26.891212
753.034851 -41.790035
753.438477 12.820714
753.842102 -11.996171
754.245544 -19.44322
754.648987 -9.513986
755.052368 15.301722
755.45575 -29.374132
755.859009 -36.823387
756.262268 -56.69265
756.665405 -79.053848
757.068542 54.985359
757.47168 5.376663
757.874634 -11.996171
758.277588 -66.62989
758.68042 -51.724735
759.083374 -66.62989
759.486084 -46.757107
759.888916 -116.341446
760.291504 42.587036
760.694214 25.225117
761.096802 -24.4084
761.499268 -7.031905
761.901733 -24.4084
762.304199 0.413576
762.706543 22.74439
763.108826 -34.340149
763.511108 30.186123
763.913208 12.820714
764.315369 -7.031905
764.717529 12.820714
765.119568 47.546593
765.521545 0.413576
765.923462 15.301722
766.325317 -46.757107
766.727112 12.820714
767.128845 -86.509453
767.530518 -51.724735
767.932251 25.225117
768.333862 -59.176838
768.735413 -26.891212
769.136841 35.146851
769.538269 20.263695
769.939636 10.339468
770.341003 -51.724735
770.742249 -59.176838
771.143433 -61.661121
771.544617 25.225117
771.94574 7.858117
772.346802 -66.62989
772.747803 -71.599205
773.148682 -64.145386
773.549622 -11.996171
773.950439 -24.4084
774.351196 -86.509453
774.751892 -21.92569
775.152588 -59.176838
775.553162 5.376663
775.953735 -151.165054
776.354309 12.820714
776.754639 -7.031905
777.15509 2.895239
777.55542 -46.757107
777.95575 -64.145386
778.355896 -46.757107
778.756104 -31.857023
779.156189 20.263695
779.556274 -34.340149
779.956299 -64.145386
780.356201 -91.480339
780.756165 32.666542
781.156006 -7.031905
781.555786 54.985359
781.955505 -71.599205
782.355225 -39.306591
782.754761 -96.451782
783.154358 2.895239
783.553894 -26.891212
783.953369 35.146851
784.352783 -88.994911
784.752075 -11.996171
785.151367 17.782761
785.550598 -39.306591
785.949768 -26.891212
786.348877 -41.790035
786.747986 -66.62989
787.147034 -34.340149
787.545959 5.376663
787.944885 45.066933
788.34375 12.820714
788.742493 -31.857023
789.141235 -21.92569
789.539917 -24.4084
789.938538 -59.176838
790.337158 -29.374132
790.735718 -86.509453
791.134094 -64.145386
791.532532 -11.996171
791.930847 2.895239
792.329224 -34.340149
792.727417 -26.891212
793.12561 -7.031905
793.523682 27.70574
793.921753 -26.891212
794.319824 -26.891212
794.717773 12.820714
795.115723 -24.4084
795.51355 79.774162
795.911377 -11.996171
796.309082 -2.068192
796.706787 42.587036
797.10437 -2.068192
797.501953 47.546593
797.899536 -71.599205
798.296936 25.225117
798.694397 -26.891212
799.091736 -49.240868
799.489014 -21.92569
799.88623 -91.480339
800.283447 -49.240868
800.680542 -54.20871
801.077637 -61.661121
801.47467 15.301722
801.871643 -79.053848
802.268555 -59.176838
802.665405 54.985359
803.062256 5.376663
803.458923 -21.92569
803.855652 -46.757107
804.252258 -36.823387
804.648804 -79.053848
805.04541 -54.20871
805.441833 -49.240868
805.838257 2.895239
806.234619 -79.053848
806.630859 -71.599205
807.0271 -54.20871
807.423279 -16.96072
807.819458 -66.62989
808.215515 -34.340149
808.611572 -41.790035
809.007507 89.686836
809.403381 -49.240868
809.799194 -36.823387
810.195068 89.686836
810.590759 35.146851
810.98645 32.666542
811.38208 5.376663
811.777649 -24.4084
812.173157 20.263695
812.568665 -64.145386
812.96405 -34.340149
813.359375 -54.20871
813.754639 -14.478327
814.149841 -41.790035
814.545105 -24.4084
814.940186 -21.92569
815.335266 -44.273586
815.730347 -69.114494
816.125244 7.858117
816.520203 5.376663
816.914978 -106.395836
817.309753 -14.478327
817.704468 -39.306591
818.099182 -49.240868
818.493774 -39.306591
818.888367 -31.857023
819.282898 -59.176838
819.677307 67.380974
820.071716 -59.176838
820.466003 -69.114494
820.860291 -36.823387
821.254517 -2.068192
821.648743 -71.599205
822.042786 -46.757107
822.43689 -81.538857
822.830872 32.666542
823.224792 -39.306591
823.618774 -9.513986
824.012512 -26.891212
824.406311 -96.451782
824.799988 -93.966003
825.193665 20.263695
825.58728 -44.273586
825.980835 -24.4084
826.374329 -9.513986
826.767761 2.895239
827.161194 2.895239
827.554443 -34.340149
827.947754 -59.176838
828.340942 -69.114494
828.734131 -21.92569
829.127136 64.902
829.520264 -26.891212
829.913208 -44.273586
830.306152 -11.996171
830.699097 -56.69265
831.091797 -49.240868
831.484619 -66.62989
831.877319 15.301722
832.27002 -26.891212
832.662537 -61.661121
833.055054 50.026287
833.44751 -34.340149
833.839966 -46.757107
834.232361 17.782761
834.624634 -21.92569
835.016907 -96.451782
835.409058 17.782761
835.801208 -41.790035
836.193298 -39.306591
836.585327 -46.757107
836.977295 -24.4084
837.369202 -66.62989
837.761047 -7.031905
838.152832 -24.4084
838.544617 -26.891212
838.936218 -44.273586
839.327942 -44.273586
839.719421 -26.891212
840.111023 -41.790035
840.50238 5.376663
840.89386 -34.340149
841.285217 -24.4084
841.676453 -39.306591
842.067749 -2.068192
842.458862 52.505875
842.849976 15.301722
843.241028 -44.273586
843.632019 45.066933
844.022949 17.782761
844.413879 30.186123
844.804749 -19.44322
845.195496 -88.994911
845.586182 -19.44322
845.976807 -121.315033
846.367432 -51.724735
846.757996 -2.068192
847.148499 -19.44322
847.538879 -54.20871
847.92926 -36.823387
848.319641 -34.340149
848.709839 -71.599205
849.100098 25.225117
849.490234 -61.661121
849.88031 25.225117
850.270325 -31.857023
850.660339 -56.69265
851.050171 -113.85495
851.440125 -79.053848
851.829895 -31.857023
852.219604 35.146851
852.609314 -51.724735
852.998901 -74.083893
853.38855 -71.599205
853.778015 -29.374132
854.16748 -2.068192
854.556885 -26.891212
854.946228 -29.374132
855.335571 -34.340149
855.724731 10.339468
856.113953 0.413576
856.503052 -19.44322
856.892151 -51.724735
857.281067 -41.790035
857.670105 -14.478327
858.05896 -44.273586
858.447754 -34.340149
858.836609 -76.568817
859.225281 -14.478327
859.613892 -41.790035
860.002502 -49.240868
860.391052 -4.549929
860.779541 -16.96072
861.167969 -41.790035
861.556335 -31.857023
861.944702 -19.44322
862.332947 -39.306591
862.721069 -76.568817
863.109253 -91.480339
863.497314 -93.966003
863.885376 -39.306591
864.273315 -123.801865
864.661255 -61.661121
865.049072 -76.568817
865.43689 -16.96072
865.824707 -56.69265
866.21228 64.902
866.599915 -96.451782
866.987488 -39.306591
867.375061 0.413576
867.762451 -16.96072
868.149841 -41.790035
868.53717 -51.724735
868.924438 5.376663
869.311707 -4.549929
869.698853 20.263695
870.085938 54.985359
870.472961 25.225117
870.859985 -16.96072
871.246887 -46.757107
871.633789 -39.306591
872.020569 -51.724735
872.407349 -14.478327
872.794067 -41.790035
873.180725 -36.823387
873.567322 -91.480339
873.953796 -44.273586
874.340332 -61.661121
874.726624 -64.145386
875.113037 -2.068192
875.499329 30.186123
875.885559 -56.69265
876.271729 27.70574
876.657898 -59.176838
877.044006 -71.599205
877.429932 -21.92569
877.815918 27.70574
878.201782 47.546593
878.587585 -11.996171
878.973389 -31.857023
879.35907 -31.857023
879.744751 0.413576
880.13031 7.858117
880.51593 2.895239
880.901367 -26.891212
881.286804 47.546593
881.67218 -11.996171
882.057434 -54.20871
882.442749 -29.374132
882.827942 -16.96072
883.213013 -7.031905
883.598145 27.70574
883.983154 -16.96072
884.368042 -49.240868
884.753052 -44.273586
885.137817 -61.661121
885.522644 -51.724735
885.907349 -54.20871
886.292053 -31.857023
886.676636 -59.176838
887.061157 -4.549929
887.44574 -56.69265
887.830078 32.666542
888.214539 -16.96072
888.598816 -14.478327
888.983093 -4.549929
889.367249 -29.374132
889.751465 47.546593
890.135498 -11.996171
890.519531 7.858117
890.903503 2.895239
891.287415 -44.273586
891.671326 -29.374132
892.055054 -36.823387
892.438843 -64.145386
892.82251 -71.599205
893.206116 -74.083893
893.589661 -96.451782
893.973206 -21.92569
894.356628 -46.757107
894.73999 -39.306591
895.123352 -41.790035
895.506592 -34.340149
895.889832 -39.306591
896.272949 -44.273586
896.656067 -4.549929
897.039063 -86.509453
897.422058 -51.724735
897.804993 12.820714
898.187866 87.208786
898.570618 -54.20871
898.953369 -4.549929
899.336121 0.413576
899.718689 20.263695
900.101257 42.587036
900.483704 10.339468
900.866211 -66.62989
901.248596 -79.053848
901.63092 -34.340149
902.013184 -88.994911
902.395386 -64.145386
902.777588 -16.96072
903.159668 7.858117
903.541687 30.186123
903.923645 -54.20871
904.305603 77.2957
904.6875 -54.20871
905.069275 -36.823387
905.45105 -31.857023
905.832642 -96.451782
906.214294 -21.92569
906.595825 -34.340149
906.977417 10.339468
907.358826 -71.599205
907.740234 -121.315033
908.121582 -136.238113
908.502869 -64.145386
908.884033 2.895239
909.265198 5.376663
909.646301 -44.273586
910.027344 -34.340149
910.408325 -56.69265
910.789246 -4.549929
911.170105 42.587036
911.550903 -4.549929
911.931641 -44.273586
912.312317 -71.599205
912.692932 -26.891212
913.073547 -61.661121
913.453979 -9.513986
913.834473 -21.92569
914.214783 -2.068192
914.595154 -59.176838
914.975464 -44.273586
915.355652 27.70574
915.73584 -7.031905
916.115845 -24.4084
916.495972 2.895239
916.875854 -131.263367
917.255859 2.895239
917.63562 -31.857023
918.015503 22.74439
918.395203 -71.599205
918.774902 -66.62989
919.15448 -2.068192
919.534058 -29.374132
919.913574 -61.661121
920.292969 -86.509453
920.672363 -24.4084
921.051636 -4.549929
921.430969 -56.69265
921.810181 -44.273586
922.189331 -46.757107
922.56842 -113.85495
922.947388 -86.509453
923.326416 -69.114494
923.705261 -4.549929
924.084106 -61.661121
924.462891 -118.828194
924.841675 -59.176838
925.220337 -51.724735
925.598938 -66.62989
925.977478 -59.176838
926.355957 -51.724735
926.734436 -9.513986
927.112732 -26.891212
927.491089 25.225117
927.869324 -2.068192
928.247559 -64.145386
928.625671 -31.857023
929.003723 42.587036
929.381775 -19.44322
929.759705 -86.509453
930.137634 -71.599205
930.515381 -24.4084
930.89325 -54.20871
931.270935 -16.96072
931.64856 -7.031905
932.026123 -51.724735
932.403687 -86.509453
932.78125 -14.478327
933.15863 37.62706
933.536011 -21.92569
933.913208 -41.790035
934.290527 -56.69265
934.667664 -71.599205
935.0448 -7.031905
935.421814 -26.891212
935.798889 -39.306591
936.175842 -146.189026
936.552673 -41.790035
936.929504 -61.661121
937.306274 -51.724735
937.683044 -93.966003
938.05957 -54.20871
938.436218 -98.937538
938.812744 -24.4084
939.189148 -41.790035
939.565613 -31.857023
939.941956 -56.69265
940.318237 -66.62989
940.694458 22.74439
941.070557 -69.114494
941.446655 -69.114494
941.822693 -31.857023
942.198669 -7.031905
942.574646 -34.340149
942.950562 -21.92569
943.326294 -59.176838
943.702026 27.70574
944.077698 -16.96072
944.453369 -39.306591
944.828918 -36.823387
945.204468 -71.599205
945.579834 -7.031905
945.955261 -39.306591
946.330627 -16.96072
946.705811 -61.661121
947.081055 -34.340149
947.456177 -4.549929
947.831238 -11.996171
948.206238 10.339468
948.581238 -9.513986
948.956116 -36.823387
949.330933 -7.031905
949.705811 -86.509453
950.080505 -69.114494
950.455139 -31.857023
950.829773 -61.661121
951.204346 10.339468
951.578735 -16.96072
951.953186 -66.62989
952.327515 -49.240868
952.701843 -84.024094
953.076172 17.782761
953.450195 -103.909622
953.824341 -56.69265
954.198486 -19.44322
954.572449 -9.513986
954.94635 -108.882004
955.320251 -56.69265
955.694092 -16.96072
956.067871 -26.891212
956.441589 27.70574
956.815125 -7.031905
957.188721 -34.340149
957.562256 -76.568817
957.93573 -44.273586
958.309021 7.858117
958.682373 -41.790035
959.055664 -66.62989
959.428955 37.62706
959.802063 -59.176838
960.17511 -44.273586
960.548157 -138.725708
960.921143 -9.513986
961.294128 -16.96072
961.666809 -29.374132
962.039612 -29.374132
962.412415 2.895239
962.785095 -61.661121
963.157715 -71.599205
963.530151 -41.790035
963.902649 -19.44322
964.275146 -11.996171
964.647522 -126.288918
965.019714 -26.891212
965.392029 -26.891212
965.76416 -39.306591
966.136292 -61.661121
966.508423 -34.340149
966.880371 20.263695
967.252319 -98.937538
967.624207 -41.790035
967.996094 -39.306591
968.367737 -7.031905
968.739441 -11.996171
969.111084 -74.083893
969.482666 -64.145386
969.854248 -93.966003
970.225586 -79.053848
970.596985 15.301722
970.968323 -36.823387
971.339661 69.859848
971.710754 -2.068192
972.081909 52.505875
972.453064 -59.176838
972.824097 -69.114494
973.194946 -39.306591
973.565918 7.858117
973.936768 32.666542
974.307556 -41.790035
974.678284 -14.478327
975.048828 -49.240868
975.419495 -26.891212
975.790039 -93.966003
976.160522 2.895239
976.530884 -84.024094
976.901245 -84.024094
977.271606 -2.068192
977.641846 -11.996171
978.012024 -24.4084
978.382019 -26.891212
978.752136 7.858117
979.122131 47.546593
979.492065 7.858117
979.861877 10.339468
980.231689 -29.374132
980.60144 -19.44322
980.971191 -9.513986
981.34082 -36.823387
981.710266 7.858117
982.079773 -64.145386
982.44928 -76.568817
982.818604 -21.92569
983.187866 -108.882004
983.557129 -54.20871
983.926331 -81.538857
984.295471 -44.273586
984.664612 -76.568817
985.033569 -16.96072
985.402527 -29.374132
985.771362 -54.20871
986.140259 -46.757107
986.508911 -11.996171
986.877625 20.263695
987.246277 -49.240868
987.614929 -9.513986
987.983459 15.301722
988.351807 -21.92569
988.720215 -29.374132
989.088623 -19.44322
989.456909 -16.96072
989.825012 -66.62989
990.193115 37.62706
990.561279 -41.790035
990.929321 5.376663
991.297302 -71.599205
991.6651 -64.145386
992.03302 2.895239
992.400818 27.70574
992.768494 -56.69265
993.136047 -21.92569
993.503723 -44.273586
993.871277 -64.145386
994.23877 45.066933
994.60614 -64.145386
994.97345 -44.273586
995.340759 -79.053848
995.708008 -54.20871
996.075195 -81.538857
996.4422 -118.828194
996.809265 -29.374132
997.17627 0.413576
997.543152 -71.599205
997.910095 -26.891212
998.276733 -2.068192
998.643494 -54.20871
999.010193 -36.823387
999.376831 -19.44322
999.743286 -64.145386
1000.109802 45.066933
1000.476257 -16.96072
1000.842651 -59.176838
1001.208923 -59.176838
1001.575134 -31.857023
1001.941284 40.107033
1002.307434 -9.513986
1002.673523 -7.031905
1003.039429 0.413576
1003.405334 -59.176838
1003.771179 -16.96072
1004.137024 -61.661121
1004.502808 5.376663
1004.868408 -84.024094
1005.234009 -7.031905
1005.599609 -11.996171
1005.965149 -64.145386
1006.330444 2.895239
1006.695862 42.587036
1007.061218 -49.240868
1007.426453 -61.661121
1007.791626 -101.423523
1008.156677 -4.549929
1008.521729 -14.478327
1008.88678 -61.661121
1009.251709 -36.823387
1009.616577 -51.724735
1009.981384 -14.478327
1010.34613 -56.69265
1010.710754 -51.724735
1011.075439 -64.145386
1011.439941 2.895239
1011.804443 0.413576
1012.168884 10.339468
1012.533325 50.026287
1012.897522 -44.273586
1013.26178 -14.478327
1013.626038 -16.96072
1013.990112 -4.549929
1014.354187 -14.478327
1014.71814 -2.068192
1015.082153 -79.053848
1015.446045 -59.176838
1015.809937 -36.823387
1016.173523 -9.513986
1016.53717 -21.92569
1016.900879 12.820714
1017.264404 -24.4084
1017.627991 -11.996171
1017.991333 -69.114494
1018.354675 -36.823387
1018.718018 -59.176838
1019.081299 -41.790035
1019.444397 -49.240868
1019.807495 -31.857023
1020.170593 -44.273586
1020.533691 -49.240868
1020.896606 -41.790035
1021.25946 -66.62989
1021.622253 -86.509453
1021.985046 -54.20871
1022.347778 -79.053848
1022.710327 -126.288918
1023.072876 -88.994911
1023.435364 -133.750626
1023.797852 -31.857023
1024.160278 -34.340149
1024.522461 7.858117
1024.884766 20.263695
1025.246948 -9.513986
1025.609131 40.107033
1025.971069 0.413576
1026.33313 25.225117
1026.694946 -21.92569
1027.056885 10.339468
1027.418823 32.666542
1027.780396 12.820714
1028.14209 -86.509453
1028.503784 17.782761
1028.865479 -21.92569
1029.226807 -81.538857
1029.588135 12.820714
1029.949707 -24.4084
1030.310913 20.263695
1030.672241 -16.96072
1031.033325 2.895239
1031.394531 -39.306591
1031.755493 12.820714
1032.116577 -29.374132
1032.477417 2.895239
1032.838257 35.146851
1033.199097 -96.451782
1033.559937 -116.341446
1033.920654 -51.724735
1034.281128 -41.790035
1034.641724 15.301722
1035.002197 -76.568817
1035.362671 -59.176838
1035.7229 -14.478327
1036.083252 -131.263367
1036.443481 -76.568817
1036.803711 20.263695
1037.16394 -133.750626
1037.523804 2.895239
1037.883789 -113.85495
1038.243774 -19.44322
1038.603638 -29.374132
1038.963257 7.858117
1039.32312 20.263695
1039.682861 10.339468
