0.0 3800
0.0 3801
0.0 3802
0.0 3803
0.0 3804
0.0 3805
0.0 3806
0.0 3807
0.0 3808
0.0 3809
0.0 3810
0.0 3811
0.0 3812
0.0 3813
0.0 3814
0.0 3815
0.0 3816
0.0 3817
0.0 3818
0.0 3819
0.0 3820
0.0 3821
0.0 3822
0.0 3823
0.0 3824
0.0 3825
0.0 3826
0.0 3827
0.0 3828
0.0 3829
0.0 3830
0.0 3831
0.0 3832
0.0 3833
0.0 3834
0.0 3835
0.0 3836
0.0 3837
0.0 3838
0.0 3839
0.0 3840
0.0 3841
0.0 3842
0.0 3843
0.0 3844
0.0 3845
0.0 3846
0.0 3847
0.0 3848
0.0 3849
0.0 3850
0.0 3851
0.0 3852
0.0 3853
0.0 3854
0.0 3855
0.0 3856
0.0 3857
0.0 3858
0.0 3859
0.0 3860
0.0 3861
0.0 3862
0.0 3863
0.0 3864
0.0 3865
0.0 3866
0.0 3867
0.0 3868
0.0 3869
0.0 3870
0.0 3871
0.0 3872
0.0 3873
0.0 3874
0.0 3875
0.0 3876
0.0 3877
0.0 3878
0.0 3879
0.0 3880
0.0 3881
0.0 3882
0.0 3883
0.0 3884
0.0 3885
0.0 3886
0.0 3887
0.0 3888
0.0 3889
0.0 3890
0.0 3891
0.0 3892
0.0 3893
0.0 3894
0.0 3895
0.0 3896
0.0 3897
0.0 3898
0.0 3899
0.0 3900
0.0 3901
0.0 3902
0.0 3903
0.0 3904
0.0 3905
0.0 3906
0.0 3907
0.0 3908
0.0 3909
0.0 3910
0.0 3911
0.0 3912
0.0 3913
0.0 3914
0.0 3915
9.26275435153 3916
8.05274047176 3917
0.0 3918
0.0 3919
0.0 3920
0.0 3921
0.0 3922
0.0 3923
0.0 3924
0.0 3925
0.0 3926
0.0 3927
0.0 3928
0.0 3929
0.0 3930
0.0 3931
0.871595877342 3932
5.40689392883 3933
3.81111705172 3934
0.0 3935
0.0 3936
0.0 3937
0.0 3938
0.0 3939
0.0 3940
0.0 3941
0.0 3942
0.0 3943
0.0 3944
0.0 3945
0.0 3946
0.0 3947
10.8898515464 3948
15.7461499034 3949
0.0 3950
0.0 3951
0.0 3952
0.0 3953
0.0 3954
0.0 3955
0.0 3956
0.0 3957
0.0 3958
0.0 3959
0.0 3960
0.0 3961
0.0 3962
0.0 3963
0.0 3964
0.0 3965
0.0 3966
0.0 3967
0.0 3968
32.7643764747 3969
77.5800421391 3970
106.089648199 3971
115.70306133 3972
103.914378944 3973
68.2449220446 3974
10.5522483032 3975
0.0 3976
0.0 3977
0.0 3978
0.0 3979
0.0 3980
0.0 3981
0.0 3982
0.0 3983
0.0 3984
0.0 3985
0.0 3986
0.0 3987
0.0 3988
0.0 3989
0.0 3990
0.0 3991
0.0 3992
0.0 3993
0.0 3994
0.0 3995
0.0 3996
0.0 3997
0.0 3998
0.0 3999
0.0 4000
0.0 4001
0.0 4002
0.222845077728 4003
27.0324111889 4004
38.4812230578 4005
28.8479468043 4006
5.22453968152 4007
0.0 4008
0.0 4009
0.0 4010
0.0 4011
0.0 4012
0.0 4013
0.0 4014
0.0 4015
0.0 4016
0.0 4017
0.0 4018
4.15487328116 4019
32.3619806607 4020
61.5753846489 4021
82.4000604008 4022
85.5579382395 4023
69.233336251 4024
45.4054206315 4025
27.4967216585 4026
28.8656425358 4027
60.7701422412 4028
120.447311985 4029
199.290077386 4030
288.712179357 4031
380.512387972 4032
481.567654162 4033
619.254763896 4034
822.303302357 4035
1119.31330604 4036
1534.72559189 4037
2073.51667352 4038
2734.84198349 4039
3517.86308202 4040
4420.31378641 4041
5406.51045191 4042
6407.27872189 4043
7352.26619997 4044
8171.42786232 4045
8810.89938551 4046
9270.68880528 4047
9562.11604898 4048
9696.44763166 4049
9684.22846594 4050
9526.53945634 4051
9217.50256813 4052
8751.0972156 4053
8121.39635757 4054
7344.19932968 4055
6487.11613046 4056
5625.06741307 4057
4832.67028483 4058
4176.78204422 4059
3655.88813014 4060
3232.03373885 4061
2867.07127364 4062
2523.24616819 4063
2182.2058496 4064
1858.6157319 4065
1570.31673753 4066
1335.08238095 4067
1167.51651748 4068
1063.06714526 4069
1009.93918911 4070
996.369133998 4071
1010.72601976 4072
1044.46937115 4073
1092.8503605 4074
1151.37035416 4075
1215.5473392 4076
1280.51089999 4077
1339.69746376 4078
1386.11475592 4079
1412.79487154 4080
1413.15581146 4081
1387.46670514 4082
1342.08142223 4083
1283.54462209 4084
1218.37634697 4085
1151.11966836 4086
1080.61370323 4087
1004.67213878 4088
921.11585733 4089
828.356812214 4090
731.51785587 4091
639.991140212 4092
563.208070197 4093
510.534002075 4094
486.174171811 4095
483.910965256 4096
496.286193935 4097
515.86559034 4098
535.638820499 4099
551.592563359 4100
561.065407572 4101
561.410396418 4102
550.067659132 4103
528.359934583 4104
503.15242771 4105
481.717051612 4106
471.304172025 4107
476.845247681 4108
491.857105865 4109
506.346513219 4110
510.348136911 4111
494.384054897 4112
459.874315397 4113
419.279613345 4114
385.519679431 4115
371.477327659 4116
385.25472794 4117
419.066541763 4118
461.837264736 4119
502.521826832 4120
530.775310991 4121
545.332798237 4122
551.432098837 4123
554.439253014 4124
559.698633195 4125
570.831656507 4126
587.566293394 4127
609.094484273 4128
634.610381958 4129
663.107005802 4130
691.870583531 4131
717.338920173 4132
735.95234534 4133
744.208446615 4134
741.624106392 4135
732.43867416 4136
721.293734125 4137
712.819490052 4138
711.029921299 4139
716.625079509 4140
729.181126707 4141
748.274502991 4142
773.37757777 4143
801.100865789 4144
824.929352553 4145
838.203536589 4146
834.279174148 4147
810.440305894 4148
778.077997469 4149
751.732500776 4150
745.911507635 4151
773.916403324 4152
831.742238427 4153
902.244232107 4154
967.98558398 4155
1011.59340068 4156
1023.57631929 4157
1013.27515528 4158
992.772276528 4159
974.124125814 4160
968.206587969 4161
975.640910364 4162
991.702627895 4163
1011.63069417 4164
1030.70781429 4165
1046.53285046 4166
1060.45381709 4167
1074.15882769 4168
1089.33246235 4169
1106.97718661 4170
1124.27668775 4171
1137.08726389 4172
1141.2721322 4173
1132.92326161 4174
1114.3320358 4175
1094.66683391 4176
1083.43741419 4177
1090.13504035 4178
1120.2959831 4179
1165.11330753 4180
1212.53641097 4181
1250.53765073 4182
1267.91592727 4183
1265.31917429 4184
1252.3983081 4185
1239.01193148 4186
1234.98621577 4187
1246.07298982 4188
1268.36774096 4189
1296.57033241 4190
1325.39050877 4191
1349.99695911 4192
1369.46371538 4193
1384.86687205 4194
1397.29683106 4195
1407.84240716 4196
1417.61329779 4197
1427.75359951 4198
1439.40851719 4199
1453.72123577 4200
1471.77823331 4201
1494.36795362 4202
1522.17763926 4203
1555.89322367 4204
1596.06649572 4205
1639.79190591 4206
1680.47688801 4207
1711.36018682 4208
1725.69253989 4209
1719.82624462 4210
1700.76357928 4211
1677.78487329 4212
1660.15436105 4213
1656.60147786 4214
1668.83356631 4215
1693.52468152 4216
1727.24444771 4217
1766.5677403 4218
1807.93801784 4219
1847.50053363 4220
1881.36606978 4221
1905.65222529 4222
1917.16787941 4223
1918.14303967 4224
1913.37711526 4225
1907.67695309 4226
1905.81758208 4227
1911.35334544 4228
1926.06524232 4229
1951.59172646 4230
1989.56844252 4231
2039.80244516 4232
2093.19030755 4233
2137.92988594 4234
2162.23840602 4235
2155.05650016 4236
2120.63941246 4237
2078.05253407 4238
2046.93706302 4239
2046.89577165 4240
2088.37959047 4241
2153.96025471 4242
2220.93603595 4243
2266.64386919 4244
2270.64579912 4245
2237.68165786 4246
2188.57266958 4247
2144.3671348 4248
2125.98855444 4249
2143.49205501 4250
2185.83275419 4251
2239.55584692 4252
2291.22969739 4253
2329.06987959 4254
2352.24546963 4255
2364.43777093 4256
2369.33586668 4257
2370.60942236 4258
2371.43791977 4259
2374.38274273 4260
2381.96117451 4261
2396.68624399 4262
2419.58682834 4263
2445.59620803 4264
2468.08795404 4265
2480.44733836 4266
2476.65415224 4267
2460.48174911 4268
2443.80983171 4269
2438.74233341 4270
2457.34458894 4271
2504.44308723 4272
2566.47717054 4273
2627.02736526 4274
2669.70401381 4275
2680.41333894 4276
2665.79184424 4277
2643.55438018 4278
2631.48893829 4279
2647.16706498 4280
2695.80035756 4281
2762.69080071 4282
2831.35913834 4283
2885.35695917 4284
2911.38581199 4285
2912.99089098 4286
2899.35393407 4287
2879.64366394 4288
2862.87507146 4289
2854.66477568 4290
2857.09846846 4291
2872.09335629 4292
2901.56201115 4293
2945.0821011 4294
2994.64224846 4295
3040.70459 4296
3073.75006937 4297
3085.23576456 4298
3078.33676752 4299
3064.04918315 4300
3053.49145097 4301
3057.71453991 4302
3081.57436234 4303
3117.51852955 4304
3156.52610772 4305
3189.5946074 4306
3208.6759629 4307
3212.16836839 4308
3201.17300812 4309
3176.79857666 4310
3140.26071805 4311
3096.80260667 4312
3056.76756399 4313
3030.80693672 4314
3029.54923677 4315
3059.82867744 4316
3113.16516416 4317
3177.21719147 4318
3239.66951802 4319
3288.86478712 4320
3323.33072347 4321
3349.8005136 4322
3375.22732247 4323
3406.53861125 4324
3447.30303658 4325
3492.94686964 4326
3537.69312336 4327
3575.77783781 4328
3602.24675584 4329
3618.93597525 4330
3631.10367162 4331
3644.02221213 4332
3662.93908586 4333
3692.37948902 4334
3735.79047222 4335
3796.52261905 4336
3877.91840379 4337
3982.53616878 4338
4109.13117037 4339
4255.30110619 4340
4418.64921742 4341
4597.60984942 4342
4807.79883137 4343
5081.01527508 4344
5449.61378592 4345
5945.89761485 4346
6631.5811289 4347
7652.95394293 4348
9171.05601578 4349
11346.5129007 4350
14312.9196351 4351
17930.1456871 4352
21897.7677769 4353
25914.0688585 4354
29679.3040258 4355
32993.6086756 4356
35829.2974839 4357
38175.8718449 4358
40022.8680062 4359
41348.6904379 4360
42067.9900268 4361
42073.0345069 4362
41256.3700018 4363
39518.6252222 4364
36963.8500233 4365
33913.4177217 4366
30698.5135758 4367
27649.3964134 4368
25012.1070958 4369
22757.6318136 4370
20800.6238839 4371
19055.9721973 4372
17443.0666421 4373
15932.8702778 4374
14530.3761813 4375
13241.1670154 4376
12070.7662281 4377
11019.8759994 4378
10079.8614091 4379
9241.03631311 4380
8493.74128606 4381
7828.9569778 4382
7241.65567201 4383
6728.39605826 4384
6285.74930946 4385
5910.27698411 4386
5597.96879985 4387
5344.13993496 4388
5144.07849352 4389
4993.0861683 4390
4885.00076702 4391
4808.27791671 4392
4750.17392604 4393
4697.98459992 4394
4639.89191503 4395
4575.62661848 4396
4513.22205102 4397
4460.87025033 4398
4426.70911705 4399
4414.2282435 4400
4417.13115235 4401
4427.89795579 4402
4439.03342408 4403
4444.07722066 4404
4443.71772261 4405
4441.70755192 4406
4441.79867102 4407
4447.66943304 4408
4460.73987449 4409
4479.58308129 4410
4502.59434762 4411
4528.17437522 4412
4554.0543448 4413
4575.32909933 4414
4586.46306849 4415
4581.94013493 4416
4556.86163112 4417
4515.17682421 4418
4467.56134774 4419
4424.82337619 4420
4397.70804079 4421
4391.78708277 4422
4401.18040167 4423
4418.48521008 4424
4436.32576835 4425
4448.37302228 4426
4455.91830579 4427
4463.67553164 4428
4476.35773584 4429
4498.5163263 4430
4528.92961406 4431
4558.80841201 4432
4578.88088742 4433
4579.91050676 4434
4556.72762574 4435
4520.58694121 4436
4486.87221674 4437
4470.90816827 4438
4486.81133778 4439
4530.95225131 4440
4585.83631973 4441
4633.66366096 4442
4656.74441063 4443
4646.66022285 4444
4615.97878792 4445
4580.12063102 4446
4554.44433194 4447
4552.09244653 4448
4569.81737417 4449
4596.89971667 4450
4622.62380062 4451
4636.51445916 4452
4636.12978451 4453
4629.61815842 4454
4625.82215975 4455
4633.54796153 4456
4657.95520832 4457
4689.43714866 4458
4714.66241136 4459
4720.35633959 4460
4694.47915376 4461
4643.04281495 4462
4586.0802788 4463
4543.91156404 4464
4536.71504729 4465
4572.526563 4466
4632.1499947 4467
4692.74434696 4468
4731.56902102 4469
4729.57711334 4470
4694.55412802 4471
4646.31359865 4472
4604.64022553 4473
4588.86012105 4474
4603.90662354 4475
4636.14911182 4476
4670.78237221 4477
4693.06874345 4478
4692.49393631 4479
4675.05548041 4480
4650.79994674 4481
4629.7274475 4482
4621.22667152 4483
4626.41828482 4484
4640.20657729 4485
4657.36605168 4486
4672.70138593 4487
4682.14203201 4488
4684.01710184 4489
4676.97518977 4490
4659.67130441 4491
4631.5792991 4492
4597.886301 4493
4566.2057654 4494
4544.12360217 4495
4538.97320425 4496
4550.5958123 4497
4569.65143124 4498
4586.27987002 4499
4590.66972023 4500
4576.63775958 4501
4551.29901796 4502
4524.80606247 4503
4507.26114805 4504
4507.99475991 4505
4526.72709744 4506
4556.39518079 4507
4589.82712413 4508
4619.90121227 4509
4641.49839513 4510
4653.48285622 4511
4655.19980879 4512
4645.99801581 4513
4625.91902061 4514
4599.4392771 4515
4572.76774893 4516
4552.0858609 4517
4543.34902399 4518
4546.81310296 4519
4556.28619691 4520
4565.25985124 4521
4567.25989903 4522
4558.13240217 4523
4541.41652102 4524
4522.24013587 4525
4505.70441008 4526
4496.38498748 4527
4493.05119679 4528
4490.74799443 4529
4484.48435962 4530
4469.34018904 4531
4444.49789603 4532
4416.529653 4533
4392.75018891 4534
4380.43391986 4535
4385.01312507 4536
4401.64720505 4537
4421.90642156 4538
4437.40395682 4539
4440.09080934 4540
4428.84973163 4541
4409.57042195 4542
4388.42328569 4543
4371.54178199 4544
4362.8615691 4545
4359.92820736 4546
4359.13476169 4547
4356.89510221 4548
4349.9545409 4549
4338.14561819 4550
4323.04780698 4551
4306.25239239 4552
4289.33631748 4553
4273.58254015 4554
4259.81262198 4555
4248.80315395 4556
4241.32579047 4557
4237.69563018 4558
4236.02692526 4559
4233.77775296 4560
4228.42150251 4561
4217.57717346 4562
4201.30756142 4563
4181.82224757 4564
4161.39146731 4565
4142.2690976 4566
4125.64451768 4567
4110.06954208 4568
4093.69975076 4569
4074.70159358 4570
4051.83806926 4571
4028.61371326 4572
4010.80547448 4573
4004.1693823 4574
4014.26972046 4575
4039.99461892 4576
4071.25985253 4577
4097.40665993 4578
4107.84363294 4579
4095.28249254 4580
4065.48585423 4581
4027.4470337 4582
3990.10208641 4583
3961.88491279 4584
3944.80690944 4585
3936.11628254 4586
3932.96413868 4587
3932.5213772 4588
3932.20694011 4589
3929.93292726 4590
3923.68404049 4591
3911.45848418 4592
3891.92008407 4593
3867.97238996 4594
3844.18646886 4595
3825.10795434 4596
3815.07377099 4597
3813.30919209 4598
3813.35357053 4599
3808.48848457 4600
3792.04097123 4601
3760.82268462 4602
3722.73768493 4603
3687.86096863 4604
3666.19969524 4605
3666.46583898 4606
3684.11520197 4607
3706.60852117 4608
3721.37734036 4609
3716.06542345 4610
3687.8251638 4611
3649.56897043 4612
3615.6180862 4613
3600.19573551 4614
3613.48731124 4615
3645.70706531 4616
3680.86772367 4617
3703.08913343 4618
3697.34360679 4619
3662.93438594 4620
3611.96635868 4621
3556.91855933 4622
3510.17295607 4623
3480.13122951 4624
3465.35666438 4625
3462.91121223 4626
3469.87700529 4627
3483.2484239 4628
3499.18168171 4629
3513.44971557 4630
3521.85269139 4631
3520.3450134 4632
3509.85276292 4633
3497.7840631 4634
3491.93553214 4635
3500.04741096 4636
3526.52192655 4637
3563.18495363 4638
3598.92369377 4639
3622.7054021 4640
3624.40105477 4641
3604.71304004 4642
3571.88254598 4643
3534.24737206 4644
3500.05692216 4645
3474.22268218 4646
3455.34839198 4647
3441.33999787 4648
3430.1189264 4649
3419.73738717 4650
3408.93594165 4651
3396.70749162 4652
3382.0525541 4653
3364.06033884 4654
3343.72609484 4655
3323.94661644 4656
3307.68133792 4657
3297.86559125 4658
3295.88557376 4659
3298.83268816 4660
3303.07409019 4661
3305.00404354 4662
3301.48838043 4663
3293.39174722 4664
3283.66646521 4665
3275.26153758 4666
3271.04988353 4667
3271.27207332 4668
3272.44316227 4669
3270.8195409 4670
3262.68570253 4671
3246.03335943 4672
3225.8451199 4673
3208.87561454 4674
3201.82862318 4675
3210.80121603 4676
3233.87678733 4677
3263.19044665 4678
3290.79303889 4679
3308.81646755 4680
3312.31530825 4681
3302.17514959 4682
3279.97447386 4683
3247.28032574 4684
3206.27804727 4685
3162.99884633 4686
3124.89001765 4687
3099.34362596 4688
3093.40990568 4689
3107.047493 4690
3132.89329138 4691
3163.2993644 4692
3190.67871191 4693
3209.39472535 4694
3219.31187695 4695
3221.27464949 4696
3216.12072911 4697
3204.84193735 4698
3189.87896373 4699
3174.43245384 4700
3161.68547859 4701
3154.73318833 4702
3153.55590337 4703
3153.69834535 4704
3150.39744212 4705
3138.92760813 4706
3116.26168069 4707
3086.25603861 4708
3054.50725331 4709
3026.56807093 4710
3007.65923126 4711
2998.92229343 4712
2998.51399035 4713
3004.53623825 4714
3015.10396811 4715
3028.16237224 4716
3041.30852138 4717
3052.11544783 4718
3058.17618836 4719
3057.80403432 4720
3053.45318371 4721
3049.06298516 4722
3048.54347826 4723
3055.55739477 4724
3068.79572525 4725
3082.02591213 4726
3088.85104815 4727
3082.9324052 4728
3061.85686258 4729
3033.77628535 4730
3008.55455622 4731
2995.97544872 4732
3004.17414636 4733
3027.97559126 4734
3055.60353368 4735
3075.3268771 4736
3075.71575871 4737
3053.9784253 4738
3018.74132125 4739
2979.35382638 4740
2945.09002224 4741
2922.98577825 4742
2911.87615361 4743
2908.68876129 4744
2910.37584774 4745
2914.01777448 4746
2917.99116498 4747
2921.54149688 4748
2923.93606087 4749
2924.45240897 4750
2922.74658458 4751
2919.13858757 4752
2914.01466115 4753
2907.75719292 4754
2900.57990919 4755
2891.83481541 4756
2880.60160874 4757
2865.96770407 4758
2847.13457069 4759
2825.29771234 4760
2803.40065101 4761
2784.42310469 4762
2771.3182714 4763
2766.2074595 4764
2769.28932366 4765
2780.48512849 4766
2799.71684005 4767
2826.39455456 4768
2856.30822715 4769
2883.71551518 4770
2902.915755 4771
2908.42206856 4772
2899.84303882 4773
2882.59726697 4774
2862.37942756 4775
2844.8382688 4776
2833.9011238 4777
2828.20651881 4778
2825.37491 4779
2823.04606055 4780
2819.03594568 4781
2812.71823799 4782
2804.34104417 4783
2794.16074815 4784
2782.44863806 4785
2770.38070079 4786
2760.46290646 4787
2755.28915674 4788
2757.43218081 4789
2768.41572047 4790
2785.47040951 4791
2804.73469336 4792
2822.37812898 4793
2834.8011291 4794
2841.17441339 4795
2842.66592646 4796
2840.47896106 4797
2835.80676543 4798
2829.83234479 4799
2823.7263367 4800
2818.65003149 4801
2815.75507257 4802
2816.22434806 4803
2821.45364155 4804
2832.904125 4805
2852.0241993 4806
2880.1192193 4807
2915.87889268 4808
2955.61917717 4809
2995.59739658 4810
3032.10588592 4811
3062.87402123 4812
3089.055616 4813
3112.30022673 4814
3134.24366275 4815
3156.14287229 4816
3176.62319081 4817
3193.17749257 4818
3203.31502667 4819
3204.7500827 4820
3200.72977642 4821
3200.77929741 4822
3214.69223887 4823
3252.18102822 4824
3317.78755082 4825
3400.34451404 4826
3485.76737389 4827
3560.08413175 4828
3611.25184573 4829
3644.38931408 4830
3673.91334352 4831
3714.2221724 4832
3779.35751672 4833
3871.71708257 4834
3977.36458981 4835
4081.23677531 4836
4168.38991086 4837
4228.76096366 4838
4270.92495417 4839
4307.90804998 4840
4352.63505659 4841
4417.09239093 4842
4502.82251678 4843
4604.36970347 4844
4716.18929471 4845
4832.78525198 4846
4949.13284625 4847
5060.99252819 4848
5164.23042968 4849
5254.74647638 4850
5330.74107809 4851
5401.52711576 4852
5479.73333474 4853
5577.89168303 4854
5707.50774333 4855
5864.71228295 4856
6033.14972422 4857
6196.22126547 4858
6337.50367427 4859
6448.722287 4860
6538.64820499 4861
6618.14770068 4862
6698.00375924 4863
6786.86793358 4864
6880.89695158 4865
6971.61544093 4866
7050.6040809 4867
7109.82963492 4868
7148.53177357 4869
7173.03906031 4870
7189.93051084 4871
7205.72946648 4872
7223.69315206 4873
7238.80021994 4874
7244.75886779 4875
7235.32528007 4876
7205.37844919 4877
7157.88656843 4878
7099.44616809 4879
7036.62226489 4880
6975.81813724 4881
6919.81600494 4882
6867.21800397 4883
6816.39958687 4884
6765.74877592 4885
6713.9442016 4886
6660.53700104 4887
6605.24584647 4888
6547.79212091 4889
6487.78236715 4890
6423.74543272 4891
6353.639354 4892
6275.43111462 4893
6187.20155041 4894
6091.44690615 4895
5996.66683938 4896
5911.73525533 4897
5845.46273147 4898
5802.66934189 4899
5773.6664769 4900
5745.50138585 4901
5705.31231446 4902
5641.68586253 4903
5558.59659331 4904
5469.63834821 4905
5388.46198549 4906
5328.50343965 4907
5295.24131135 4908
5281.58421695 4909
5279.37217037 4910
5280.50008904 4911
5277.94570648 4912
5269.22002695 4913
5253.06927342 4914
5228.25024274 4915
5193.63645859 4916
5149.63464777 4917
5097.75961412 4918
5039.54022618 4919
4976.5039078 4920
4910.90520461 4921
4846.34305196 4922
4786.53770998 4923
4735.18491484 4924
4694.90733411 4925
4662.97368027 4926
4634.98146736 4927
4606.55530493 4928
4573.55572319 4929
4535.38631395 4930
4494.37184389 4931
4452.91117694 4932
4413.3784447 4933
4376.36676782 4934
4338.76536149 4935
4297.01735726 4936
4247.58711161 4937
4188.14530524 4938
4123.33511985 4939
4060.30297002 4940
4006.1551557 4941
3967.58408129 4942
3943.63930902 4943
3926.26814195 4944
3907.19236503 4945
3878.19695188 4946
3835.03467925 4947
3782.79311347 4948
3727.88112478 4949
3676.67054432 4950
3634.73904651 4951
3602.54886944 4952
3578.46797479 4953
3560.86851864 4954
3548.12073792 4955
3538.34534869 4956
3529.40326871 4957
3519.15496666 4958
3505.47346004 4959
3486.59962254 4960
3461.73216334 4961
3430.23017106 4962
3391.45562825 4963
3345.28978276 4964
3295.5201374 4965
3247.70284513 4966
3207.37337626 4967
3179.86125985 4968
3165.16137748 4969
3157.16708893 4970
3149.46637595 4971
3135.68495292 4972
3111.78039119 4973
3080.52889569 4974
3045.94103783 4975
3012.00664108 4976
2982.27241768 4977
2956.68246531 4978
2933.37386131 4979
2910.47778622 4980
2886.15616741 4981
2859.301738 4982
2829.71680295 4983
2797.2622806 4984
2761.7994183 4985
2723.86144763 4986
2686.15888014 4987
2651.82986582 4988
2623.9977263 4989
2605.36013362 4990
2594.73007365 4991
2588.80124105 4992
2584.26119532 4993
2577.84730771 4994
2567.78330065 4995
2554.291659 4996
2537.73434961 4997
2518.4717455 4998
2497.06496367 4999
2474.78569318 5000
2453.0568541 5001
2433.29535827 5002
2416.70376866 5003
2402.34421455 5004
2388.02694755 5005
2371.55517103 5006
2350.7799307 5007
2325.49014776 5008
2298.26165267 5009
2271.87707982 5010
2249.10779739 5011
2231.89973907 5012
2219.12146529 5013
2208.92140313 5014
2199.45612133 5015
2188.97327584 5016
2176.66129772 5017
2162.29353818 5018
2145.65376158 5019
2126.54775265 5020
2106.03071925 5021
2087.0579989 5022
2072.73284532 5023
2066.14799096 5024
2068.89217393 5025
2076.58394342 5026
2083.36808662 5027
2083.41047258 5028
2071.51648634 5029
2049.84628548 5030
2025.35269694 5031
2005.04716328 5032
1995.83964653 5033
1999.55311144 5034
2009.94349514 5035
2020.06903365 5036
2023.01036729 5037
2013.80367591 5038
1995.57683308 5039
1973.55570448 5040
1952.94959828 5041
1938.63232679 5042
1931.49221033 5043
1929.72513909 5044
1931.48167048 5045
1934.92435123 5046
1938.64744998 5047
1941.951162 5048
1944.20204715 5049
1944.76954756 5050
1943.1821958 5051
1939.65045869 5052
1934.56813561 5053
1928.32728744 5054
1921.35319722 5055
1914.51392299 5056
1908.98178356 5057
1905.93337072 5058
1906.53122458 5059
1911.14571242 5060
1918.82204429 5061
1928.48204323 5062
1939.04937615 5063
1949.46642046 5064
1958.74422883 5065
1965.91467219 5066
1970.01185727 5067
1970.18487919 5068
1967.06432108 5069
1962.31997432 5070
1957.63998281 5071
1954.69658941 5072
1954.25038109 5073
1955.52021343 5074
1957.57932867 5075
1959.50139781 5076
1960.65705416 5077
1961.71606885 5078
1963.70672645 5079
1967.65451102 5080
1974.42028212 5081
1982.71348629 5082
1989.73335087 5083
1992.65390231 5084
1988.69058783 5085
1978.04303687 5086
1965.94564351 5087
1958.11166139 5088
1960.2447057 5089
1975.96642213 5090
1999.7944871 5091
2023.75897202 5092
2039.90273725 5093
2041.00090505 5094
2029.18570597 5095
2013.11042257 5096
2001.54904801 5097
2003.17971827 5098
2020.50172095 5099
2045.73310789 5100
2070.12770293 5101
2084.95140201 5102
2084.04646292 5103
2072.32060261 5104
2057.65193311 5105
2047.91041779 5106
2050.33033646 5107
2064.24798098 5108
2083.60319371 5109
2102.23889925 5110
2114.05582784 5111
2116.57940375 5112
2113.22511266 5113
2107.94414541 5114
2104.68529848 5115
2106.42069406 5116
2112.05799163 5117
2119.44709654 5118
2126.43862363 5119
2130.94770298 5120
2131.6465351 5121
2127.70722005 5122
2118.31139492 5123
2102.67342499 5124
2082.05977261 5125
2060.95432387 5126
2044.11881401 5127
2036.31422207 5128
2040.50547237 5129
2052.50211109 5130
2066.32997774 5131
2076.01821206 5132
2076.21701741 5133
2068.5888233 5134
2059.2289681 5135
2054.30228076 5136
2059.88395783 5137
2077.24338948 5138
2100.46209595 5139
2123.03340086 5140
2138.45246009 5141
2142.01041493 5142
2135.75516372 5143
2123.32394505 5144
2108.35264757 5145
2094.32469873 5146
2083.11997307 5147
2075.65630667 5148
2072.83944976 5149
2075.54125523 5150
2083.05116832 5151
2092.42561273 5152
2100.551542 5153
2104.31548637 5154
2101.66970455 5155
2094.31324724 5156
2084.76933169 5157
2075.56101517 5158
2068.96481539 5159
2064.86460004 5160
2061.80594378 5161
2058.3174199 5162
2052.96774653 5163
2045.89485085 5164
2039.30364269 5165
2035.54173711 5166
2036.95699974 5167
2044.57006018 5168
2055.10440413 5169
2064.41565171 5170
2068.35633929 5171
2063.41549373 5172
2051.67520075 5173
2038.11494475 5174
2027.741311 5175
2025.42984853 5176
2031.55893125 5177
2041.05031825 5178
2048.49291975 5179
2048.47424233 5180
2037.75473175 5181
2019.49487408 5182
1998.02729227 5183
1977.68877748 5184
1962.36906596 5185
1952.44060829 5186
1946.61819826 5187
1943.60659353 5188
1942.11661355 5189
1941.08563702 5190
1939.70121593 5191
1937.16346383 5192
1932.67250955 5193
1925.81003567 5194
1917.17200477 5195
1907.52101988 5196
1897.62100256 5197
1888.23128008 5198
1880.07647338 5199
1873.86690494 5200
1870.31373727 5201
1870.0806227 5202
1872.71415013 5203
1876.64156792 5204
1880.23958986 5205
1881.88349973 5206
1880.22688884 5207
1874.58020069 5208
1864.34818018 5209
1848.93471941 5210
1828.25693194 5211
1805.36659499 5212
1784.50012198 5213
1769.90156644 5214
1765.54734287 5215
1770.228813 5216
1778.09717478 5217
1783.13151329 5218
1779.3235202 5219
1763.99722633 5220
1741.42706254 5221
1716.76305848 5222
1695.16270782 5223
1680.86949373 5224
1673.2663133 5225
1670.13331657 5226
1669.24626584 5227
1668.46145645 5228
1666.93010933 5229
1664.82641753 5230
1662.35229472 5231
1659.71067536 5232
1657.13933323 5233
1654.94024407 5234
1653.42250839 5235
1652.89564237 5236
1653.39226531 5237
1653.68612732 5238
1652.19177061 5239
1647.32107224 5240
1637.62617412 5241
1623.48103391 5242
1606.51654215 5243
1588.39084844 5244
1570.76326717 5245
1555.12728248 5246
1542.71518318 5247
1534.73760751 5248
1532.40810814 5249
1536.21889897 5250
1543.87883978 5251
1552.42387233 5252
1558.88354951 5253
1560.49503216 5254
1556.69726635 5255
1548.23311341 5256
1535.86391783 5257
1520.36766425 5258
1503.16313897 5259
1486.53596227 5260
1472.83728024 5261
1464.42304295 5262
1462.68415708 5263
1465.88891142 5264
1471.67354763 5265
1477.66976427 5266
1481.68040008 5267
1482.99316609 5268
1481.64163703 5269
1477.66442865 5270
1471.13229894 5271
1463.0642708 5272
1455.56997014 5273
1450.82335342 5274
1450.9994575 5275
1456.56202517 5276
1463.37920165 5277
1466.54892764 5278
1461.15920791 5279
1443.43763117 5280
1417.47194324 5281
1390.65238742 5282
1370.39582174 5283
1363.83300033 5284
1371.58187365 5285
1387.96822234 5286
1407.05005153 5287
1422.88143637 5288
1431.56293355 5289
1433.73994747 5290
1430.66859534 5291
1423.6086485 5292
1413.77395213 5293
1402.1160524 5294
1389.49732097 5295
1376.78211914 5296
1364.85679568 5297
1354.91825468 5298
1348.41394829 5299
1346.80228568 5300
1351.5203395 5301
1361.71845023 5302
1372.40032636 5303
1378.12148353 5304
1373.42497303 5305
1354.87200075 5306
1327.97423235 5307
1300.72474825 5308
1281.13603989 5309
1276.5464543 5310
1286.02781389 5311
1303.19446733 5312
1321.54974233 5313
1334.65001001 5314
1339.62906161 5315
1338.90796522 5316
1335.33875102 5317
1331.77981243 5318
1330.64372599 5319
1332.76393023 5320
1338.62890815 5321
1348.72853768 5322
1363.42663769 5323
1381.93774197 5324
1402.86336899 5325
1424.79592099 5326
1446.35312511 5327
1467.08031959 5328
1487.63126968 5329
1508.72713211 5330
1531.08970433 5331
1554.89430308 5332
1578.8105624 5333
1601.24878767 5334
1620.61529003 5335
1635.49514989 5336
1645.73086807 5337
1651.69666452 5338
1653.76950564 5339
1652.32323756 5340
1647.64811604 5341
1639.95436443 5342
1629.44901856 5343
1616.34490251 5344
1601.56730541 5345
1587.57836778 5346
1577.04499178 5347
1572.64093025 5348
1576.48452346 5349
1587.74603169 5350
1604.62401726 5351
1625.31322503 5352
1648.0403028 5353
1671.56869521 5354
1695.06746297 5355
1717.71453568 5356
1738.70020179 5357
1758.36690358 5358
1778.99293889 5359
1803.04741735 5360
1833.00573272 5361
1870.6382575 5362
1914.89040689 5363
1964.00251883 5364
2016.21015057 5365
2070.02547776 5366
2126.85808717 5367
2189.83013008 5368
2262.09496252 5369
2346.73668832 5370
2443.88809869 5371
2549.82659568 5372
2660.56174331 5373
2772.09447293 5374
2881.46930547 5375
2988.87033164 5376
3095.06690063 5377
3200.82989412 5378
3306.7279451 5379
3411.81564332 5380
3514.46300102 5381
3613.03176629 5382
3706.02414372 5383
3795.28649252 5384
3886.03263699 5385
3983.63854881 5386
4093.48547985 5387
4219.36551796 5388
4361.49491233 5389
4519.60087448 5390
4693.41332144 5391
4883.0248189 5392
5090.51094702 5393
5318.61917274 5394
5570.10426269 5395
5847.58872181 5396
6151.65046432 5397
6481.29607783 5398
6835.49134264 5399
7213.25511794 5400
7617.85612624 5401
8059.69001713 5402
8549.85895113 5403
9099.48940759 5404
9717.20136535 5405
10401.7196313 5406
11149.3354851 5407
11956.3265693 5408
12818.6811528 5409
13729.4974066 5410
14680.2100586 5411
15662.2156707 5412
16666.5692049 5413
17672.9034507 5414
18646.5201057 5415
19551.7313159 5416
20352.7833756 5417
21022.2906197 5418
21556.6254472 5419
21956.3235961 5420
22221.9242819 5421
22356.2742994 5422
22378.1008176 5423
22312.8694673 5424
22186.1209028 5425
22022.9070199 5426
21837.3096283 5427
21633.1443195 5428
21413.8436268 5429
21182.8758999 5430
20946.8266974 5431
20718.6477106 5432
20512.0891531 5433
20340.9334175 5434
20214.9703069 5435
20124.6396779 5436
20054.5538019 5437
19989.274828 5438
19914.4111313 5439
19828.9673445 5440
19741.1006509 5441
19659.1689169 5442
19591.3753005 5443
19537.3670819 5444
19484.1349303 5445
19417.62937 5446
19323.773018 5447
19227.1714903 5448
19281.8531728 5449
19669.1802614 5450
20570.890468 5451
22139.5542361 5452
24285.2813553 5453
26798.8653076 5454
29469.83048 5455
32090.933943 5456
34548.8976086 5457
36830.5637134 5458
38927.5730624 5459
40831.4063971 5460
42490.795389 5461
43754.8360913 5462
44458.2061075 5463
44435.2289736 5464
43567.2156282 5465
41995.900629 5466
39952.6094788 5467
37669.2163931 5468
35371.6017457 5469
33190.9519273 5470
31186.2986856 5471
29414.9958506 5472
27933.7830094 5473
26750.3111803 5474
25791.9771418 5475
24978.6404177 5476
24229.9893044 5477
23482.4240752 5478
22734.7384367 5479
22000.2033959 5480
21292.1184114 5481
20621.4875001 5482
19978.2084227 5483
19340.8949881 5484
18688.00812 5485
17998.7527066 5486
17275.4135998 5487
16546.6833225 5488
15842.7417038 5489
15193.796603 5490
14617.2638936 5491
14098.576303 5492
13618.2366029 5493
13156.7144193 5494
12697.5191516 5495
12242.1924899 5496
11798.8416565 5497
11375.593455 5498
10980.2266194 5499
10614.7668243 5500
10276.6460911 5501
9963.16483637 5502
9671.60439321 5503
9398.33322833 5504
9138.16767921 5505
8885.76734773 5506
8635.78067345 5507
8384.79272405 5508
8136.82192446 5509
7897.66996362 5510
7673.15264278 5511
7468.19483957 5512
7279.36587423 5513
7098.66202696 5514
6918.02247324 5515
6729.58885644 5516
6532.0028989 5517
6331.42922856 5518
6134.46293552 5519
5947.699304 5520
5774.66591277 5521
5611.21065473 5522
5451.9940564 5523
5291.66885518 5524
5126.27121626 5525
4959.91755003 5526
4799.64660328 5527
4652.50810585 5528
4525.05757086 5529
4416.02272635 5530
4317.98244974 5531
4223.34018222 5532
4124.54274082 5533
4018.11279159 5534
3907.28777193 5535
3795.93797143 5536
3687.93765118 5537
3586.10119965 5538
3489.31837029 5539
3395.57335911 5540
3302.84795188 5541
3209.3384934 5542
3115.15462254 5543
3021.40422665 5544
2929.20574088 5545
2839.65091344 5546
2753.06420602 5547
2668.92991592 5548
2586.68779775 5549
2505.77916608 5550
2426.16972609 5551
2349.05426552 5552
2275.80355049 5553
2207.79059214 5554
2146.10288217 5555
2090.29003852 5556
2039.39005824 5557
1992.4379116 5558
1948.43064339 5559
1905.86096527 5560
1862.85520897 5561
1817.52854052 5562
1768.04073193 5563
1715.16999673 5564
1663.6401389 5565
1618.5083667 5566
1584.83795325 5567
1565.14374054 5568
1553.52804777 5569
1542.35451418 5570
1523.97628328 5571
1491.90835412 5572
1448.7049884 5573
1401.13510129 5574
1356.00024768 5575
1319.87873792 5576
1294.21664246 5577
1275.4346476 5578
1259.73911633 5579
1243.34158687 5580
1224.03874018 5581
1202.8814415 5582
1181.32083454 5583
1160.81054927 5584
1142.46058031 5585
1125.79862422 5586
1109.89744512 5587
1093.82820643 5588
1076.76119092 5589
1058.99001852 5590
1041.51287873 5591
1025.34068361 5592
1011.45479194 5593
999.667502505 5594
988.274041982 5595
975.466791754 5596
959.437080136 5597
939.431814148 5598
917.613303429 5599
896.645521288 5600
879.195165738 5601
867.455055866 5602
860.61322499 5603
856.68882742 5604
853.696218274 5605
849.729259671 5606
844.229163385 5607
837.743632919 5608
830.853831527 5609
824.134612835 5610
817.650504874 5611
810.603051892 5612
802.110445423 5613
791.289636982 5614
777.8104823 5615
763.375630712 5616
750.156818852 5617
740.328076652 5618
735.67325287 5619
734.613759541 5620
733.859223239 5621
730.102254386 5622
720.172636619 5623
704.41925419 5624
686.880669697 5625
671.774283575 5626
663.310272709 5627
663.600595745 5628
670.193653228 5629
680.036945671 5630
690.074529563 5631
697.416362243 5632
699.981904917 5633
695.932490567 5634
683.427601767 5635
661.054260689 5636
632.373667528 5637
604.155713855 5638
583.229804049 5639
576.284359145 5640
584.149358448 5641
599.969519763 5642
616.36249024 5643
625.942804267 5644
623.984402809 5645
613.08892696 5646
597.109788469 5647
579.903910165 5648
564.803135665 5649
551.872857124 5650
539.930761048 5651
527.791116225 5652
514.383591758 5653
500.473139126 5654
488.287439232 5655
480.096607436 5656
478.141609377 5657
482.573093548 5658
490.160562558 5659
497.363252686 5660
500.637599136 5661
497.755089923 5662
491.023507321 5663
483.728118409 5664
479.156909891 5665
479.967895533 5666
483.863479985 5667
486.208134416 5668
482.34852757 5669
467.887781831 5670
443.986805943 5671
417.146690299 5672
394.089047334 5673
381.51304767 5674
382.69499935 5675
394.219998698 5676
411.896558264 5677
431.529768803 5678
449.30456922 5679
463.022084466 5680
470.90915293 5681
471.19136026 5682
462.467006217 5683
446.985370161 5684
429.061169949 5685
413.035633086 5686
403.143659306 5687
400.418946925 5688
402.258453695 5689
405.860741316 5690
408.425406329 5691
407.969207564 5692
404.410194018 5693
397.935756318 5694
388.733678995 5695
377.209675111 5696
364.875248708 5697
353.592760171 5698
345.225889391 5699
341.445006439 5700
341.579256718 5701
343.407720765 5702
344.680401879 5703
343.190190684 5704
338.523014063 5705
332.632759037 5706
327.636887834 5707
325.65252721 5708
327.722870426 5709
331.974230568 5710
336.041694143 5711
337.558642854 5712
334.679182147 5713
328.661029711 5714
321.905437315 5715
316.817089987 5716
315.621318561 5717
317.910638349 5718
321.287375054 5719
323.303141286 5720
321.543196359 5721
315.5309793 5722
307.699083563 5723
300.720888606 5724
297.270934505 5725
298.86911445 5726
303.443373153 5727
308.224580422 5728
310.441731613 5729
307.835731193 5730
301.662996799 5731
294.654431787 5732
289.547606652 5733
288.929073788 5734
292.746274812 5735
298.713776319 5736
304.474396351 5737
307.689076101 5738
307.466732391 5739
305.342176394 5740
303.082431973 5741
302.455566528 5742
304.890467168 5743
310.629498635 5744
319.656335781 5745
331.954582419 5746
347.282284156 5747
363.659398814 5748
378.297490073 5749
388.401843136 5750
391.323421818 5751
387.377922533 5752
379.633499987 5753
371.264241623 5754
365.492097138 5755
370.082615097 5756
401.121355401 5757
475.591601123 5758
610.486777405 5759
819.607941227 5760
1104.49708616 5761
1463.75921903 5762
1895.99859826 5763
2397.29732607 5764
2942.3954482 5765
3495.27987342 5766
4019.83646477 5767
4480.59891555 5768
4857.35592216 5769
5145.08965316 5770
5339.43409136 5771
5436.03886768 5772
5432.84931845 5773
5332.30591002 5774
5137.37322773 5775
4851.01783203 5776
4486.68690463 5777
4100.82400874 5778
3760.92066382 5779
3534.50842423 5780
3481.79196903 5781
3596.03738808 5782
3834.76084505 5783
4155.11938787 5784
4514.82304697 5785
4885.9649086 5786
5255.69111393 5787
5611.85176389 5788
5942.28427685 5789
6233.95590274 5790
6472.05278242 5791
6641.53138387 5792
6727.34039684 5793
6717.71266584 5794
6615.03153872 5795
6425.48998262 5796
6155.28708705 5797
5812.79825286 5798
5427.12431985 5799
5038.85682891 5800
4688.7329278 5801
4416.34304666 5802
4230.46950595 5803
4106.70017544 5804
4018.96468622 5805
3941.23261592 5806
3856.37752709 5807
3766.12367735 5808
3674.59093633 5809
3585.9036947 5810
3503.83100369 5811
3430.58152653 5812
3367.9357336 5813
3317.67533679 5814
3281.18981456 5815
3256.05701812 5816
3237.70898952 5817
3221.55291392 5818
3203.22256559 5819
3184.60116698 5820
3174.3821832 5821
3181.60689391 5822
3215.28315257 5823
3277.83365237 5824
3357.69543594 5825
3441.51444747 5826
3515.92680631 5827
3571.17816063 5828
3613.3928039 5829
3653.06105624 5830
3700.67914582 5831
3765.44057456 5832
3843.9695545 5833
3925.87240397 5834
4000.67224146 5835
4058.16097006 5836
4095.38273182 5837
4117.17937795 5838
4128.78823586 5839
4135.43489825 5840
4140.91568954 5841
4146.03708733 5842
4151.23126243 5843
4156.93170681 5844
4162.68792809 5845
4164.26412684 5846
4156.40907196 5847
4133.86697817 5848
4092.42308493 5849
4037.57153625 5850
3980.08694417 5851
3930.80174469 5852
3900.14634719 5853
3888.3699603 5854
3885.10451782 5855
3879.47577311 5856
3860.65780701 5857
3825.07195169 5858
3783.70634116 5859
3749.30003891 5860
3734.59881244 5861
3749.91100456 5862
3795.57431596 5863
3869.38286679 5864
3969.12988224 5865
4091.99087175 5866
4229.74056121 5867
4371.35411362 5868
4505.77568551 5869
4622.24205541 5870
4716.77760446 5871
4792.11244757 5872
4851.26419548 5873
4897.21641548 5874
4928.94837247 5875
4937.8765564 5876
4914.57152014 5877
4849.59810792 5878
4738.06133804 5879
4592.30356378 5880
4428.76396862 5881
4263.89294769 5882
4112.57602261 5883
3977.06048496 5884
3853.50969168 5885
3738.04557916 5886
3626.928772 5887
3519.21748469 5888
3416.54134594 5889
3320.62584564 5890
3233.18518901 5891
3154.75141689 5892
3083.80108167 5893
3018.60270353 5894
2957.42413725 5895
2898.97323205 5896
2843.48593491 5897
2791.52624602 5898
2743.66158758 5899
2700.35693557 5900
2661.36019399 5901
2626.1035244 5902
2594.01732006 5903
2564.53701391 5904
2537.17293642 5905
2511.50018306 5906
2487.0940662 5907
2463.55460197 5908
2441.93665233 5909
2425.58236568 5910
2418.03771783 5911
2422.8497028 5912
2441.69002868 5913
2470.46349094 5914
2503.96909241 5915
2537.00309976 5916
2565.50538977 5917
2592.67248659 5918
2624.52588407 5919
2667.09812996 5920
2726.05646235 5921
2801.76749308 5922
2890.64033797 5923
2988.98562374 5924
3093.09902195 5925
3198.69992469 5926
3300.7118967 5927
3393.99465392 5928
3473.40527501 5929
3535.3361214 5930
3580.28077377 5931
3609.40923149 5932
3623.89368002 5933
3624.60100979 5934
3610.73691314 5935
3580.94632279 5936
3533.87331168 5937
3468.41311978 5938
3386.43504065 5939
3291.74148509 5940
3188.17057627 5941
3079.54948508 5942
2969.20351231 5943
2859.85261101 5944
2754.18001933 5945
2654.87094154 5946
2563.75549443 5947
2480.71536901 5948
2405.36180382 5949
2337.30590049 5950
2275.9356609 5951
2219.6290312 5952
2166.47407586 5953
2114.55810495 5954
2062.22101552 5955
2010.23015029 5956
1960.69884081 5957
1915.75731574 5958
1877.45473918 5959
1845.8445056 5960
1818.92242337 5961
1794.58840692 5962
1770.74547767 5963
1745.80484198 5964
1719.15296633 5965
1690.28383084 5966
1658.69198264 5967
1624.72476291 5968
1591.91235918 5969
1564.52925989 5970
1546.85497082 5971
1542.32325322 5972
1547.90265876 5973
1557.5844024 5974
1565.33708879 5975
1565.49290493 5976
1558.91972934 5977
1552.08894349 5978
1551.66057374 5979
1564.24305079 5980
1592.77806088 5981
1634.42895241 5982
1685.84894637 5983
1743.68753608 5984
1804.53145331 5985
1864.79080649 5986
1920.83731868 5987
1969.04031485 5988
2006.59713881 5989
2035.70391162 5990
2060.41380573 5991
2084.78812956 5992
2112.54572439 5993
2142.89987058 5994
2171.9117544 5995
2195.57403619 5996
2209.93402017 5997
2213.27105868 5998
2206.71010262 5999
2191.56275866 6000
2169.14181978 6001
2140.73179108 6002
2107.55149804 6003
2070.81015018 6004
2031.71813351 6005
1991.2133949 6006
1948.95442363 6007
1904.22767476 6008
1856.3190515 6009
1804.71872048 6010
1750.88547486 6011
1697.37361149 6012
1646.75238763 6013
1601.50884068 6014
1562.11981851 6015
1527.02139246 6016
1494.55591362 6017
1463.06834148 6018
1431.29506797 6019
1398.7007341 6020
1364.82749387 6021
1329.21870138 6022
1291.85345091 6023
1254.26103434 6024
1218.3145565 6025
1185.88965172 6026
1158.52300589 6027
1135.35251036 6028
1114.48662112 6029
1094.02721143 6030
1072.20618248 6031
1049.31467393 6032
1027.2721459 6033
1008.04490911 6034
993.581437754 6035
984.852292883 6036
981.435057586 6037
982.799475833 6038
988.414319658 6039
997.255494614 6040
1006.99900726 6041
1015.10591654 6042
1019.03363447 6043
1016.92836871 6044
1010.49522271 6045
1002.5839639 6046
996.048618284 6047
993.566653611 6048
995.908209646 6049
1002.69771065 6050
1013.54316814 6051
1028.00698957 6052
1044.46211794 6053
1059.99699518 6054
1071.63224105 6055
1076.40543563 6056
1074.00021284 6057
1069.2760124 6058
1067.69794377 6059
1074.73929402 6060
1094.25386004 6061
1124.08354505 6062
1160.67528562 6063
1200.47207653 6064
1240.12440775 6065
1277.83169712 6066
1312.47642704 6067
1342.94304231 6068
1368.32542091 6069
1391.07634077 6070
1416.34850064 6071
1449.37762451 6072
1495.31939004 6073
1555.01969569 6074
1623.14406182 6075
1693.8735851 6076
1761.38654711 6077
1822.32505721 6078
1879.80266305 6079
1937.98293135 6080
2001.03578821 6081
2073.03692033 6082
2157.56018748 6083
2258.0266718 6084
2377.86090486 6085
2519.97904417 6086
2682.06077533 6087
2858.73717176 6088
3044.59178812 6089
3234.47297827 6090
3429.91631333 6091
3639.38587451 6092
3871.67840321 6093
4135.59907395 6094
4439.29404146 6095
4789.68446185 6096
5193.5682882 6097
5657.75435912 6098
6195.44506781 6099
6841.7108016 6100
7636.35489842 6101
8619.24651958 6102
9822.80300864 6103
11229.6861399 6104
12802.271412 6105
14502.8176635 6106
16293.1891609 6107
18130.5777222 6108
19968.7277663 6109
21761.2297181 6110
23461.3454171 6111
25012.4607445 6112
26345.2237033 6113
27389.3342133 6114
28074.5202552 6115
28368.1750551 6116
28325.0197338 6117
28012.1811261 6118
27496.8875983 6119
26839.8775536 6120
26073.1540853 6121
25220.9254457 6122
24307.4488459 6123
23358.0706682 6124
22407.1460073 6125
21493.5984166 6126
20656.4533775 6127
19932.8835089 6128
19323.8489827 6129
18797.9270404 6130
18322.5267115 6131
17865.2295822 6132
17407.9750866 6133
16955.1835928 6134
16513.2430518 6135
16088.5458595 6136
15684.3221244 6137
15294.8732764 6138
14912.9146185 6139
14531.1610249 6140
14144.2238077 6141
13756.9096132 6142
13377.4241086 6143
13013.9829553 6144
12673.8300764 6145
12353.7844263 6146
12044.3889943 6147
11736.0787952 6148
11419.4760425 6149
11090.0764248 6150
10748.5057338 6151
10395.6303249 6152
10032.3383372 6153
9660.95121628 6154
9286.4383777 6155
8914.04831212 6156
8549.05195927 6157
8196.13861713 6158
7858.08023677 6159
7537.25156847 6160
7236.02750965 6161
6956.12299668 6162
6695.03449617 6163
6448.61824266 6164
6212.71967242 6165
5983.45104426 6166
5760.43103509 6167
5545.70420268 6168
5341.36882204 6169
5149.48191602 6170
4970.65264535 6171
4803.76278706 6172
4647.58862341 6173
4500.90337679 6174
4362.34987655 6175
4230.29635607 6176
4103.07475315 6177
3979.01437908 6178
3857.47649154 6179
3741.75816619 6180
3636.10160746 6181
3544.75550063 6182
3470.9667232 6183
3410.7362546 6184
3356.89123613 6185
3302.23402419 6186
3240.08428305 6187
3171.69706973 6188
3104.41656937 6189
3045.75966246 6190
3003.11111414 6191
2978.19016895 6192
2965.2655595 6193
2958.08794879 6194
2950.4078751 6195
2938.38894031 6196
2923.75782977 6197
2909.02548208 6198
2896.70502599 6199
2888.93272556 6200
2886.23486822 6201
2888.71482487 6202
2896.47728008 6203
2909.54424716 6204
2927.29433485 6205
2948.79655972 6206
2973.1177234 6207
2999.25991631 6208
3025.18387757 6209
3047.99440721 6210
3064.76424315 6211
3072.59464737 6212
3070.13691886 6213
3058.21794748 6214
3037.82895944 6215
3009.96735435 6216
2977.04393732 6217
2944.92213761 6218
2919.99248661 6219
2908.65758965 6220
2915.4719156 6221
2936.7500321 6222
2966.51090868 6223
2998.76368532 6224
3028.00932393 6225
3052.94324954 6226
3074.3467713 6227
3093.02018636 6228
3109.73601503 6229
3124.78318549 6230
3138.04103509 6231
3149.37118698 6232
3158.6511972 6233
3166.4173086 6234
3174.1558427 6235
3183.43268809 6236
3195.81442413 6237
3211.87840031 6238
3229.71619997 6239
3247.03363675 6240
3261.52922718 6241
3271.37557954 6242
3276.89542144 6243
3279.02379806 6244
3278.69625665 6245
3276.96898413 6246
3275.89712505 6247
3278.04369484 6248
3285.97868643 6249
3302.05994282 6250
3324.77299658 6251
3349.28413737 6252
3370.64504003 6253
3383.95189182 6254
3387.21290812 6255
3382.64520814 6256
3372.80172778 6257
3360.23429221 6258
3346.72152787 6259
3332.09945475 6260
3315.90939449 6261
3297.68955306 6262
3277.00378299 6263
3253.52363636 6264
3226.94957961 6265
3196.98100846 6266
3163.4206 6267
3126.91557902 6268
3088.52782237 6269
3049.32473148 6270
3010.41392159 6271
2973.54893372 6272
2941.02555848 6273
2915.15846513 6274
2898.17772372 6275
2888.25456288 6276
2877.90085858 6277
2859.19577957 6278
2824.22308733 6279
2770.64406959 6280
2709.37723128 6281
2653.28597951 6282
2615.25665077 6283
2604.1194765 6284
2611.52369707 6285
2624.57731385 6286
2630.36103971 6287
2617.76026813 6288
2589.64959358 6289
2555.39692425 6290
2524.42379302 6291
2505.82397965 6292
2503.42928208 6293
2516.94001941 6294
2545.94712039 6295
2590.0255396 6296
2648.16291264 6297
2718.58606653 6298
2799.46648571 6299
2888.97389658 6300
2985.5798325 6301
3088.42336028 6302
3196.72994763 6303
3309.72333006 6304
3426.1579173 6305
3542.99253103 6306
3656.75082834 6307
3763.94926178 6308
3860.69435186 6309
3940.31008823 6310
3994.93634834 6311
4016.69302791 6312
3998.27171073 6313
3940.1460099 6314
3848.34294199 6315
3729.01656281 6316
3588.33216158 6317
3432.35040781 6318
3267.00739341 6319
3098.24298343 6320
2932.00480946 6321
2773.73404093 6322
2627.8670446 6323
2498.73357574 6324
2390.67080896 6325
2305.15976511 6326
2234.04710497 6327
2167.13767973 6328
2094.21753557 6329
2006.85054656 6330
1907.32950684 6331
1801.92188986 6332
1696.91362274 6333
1598.29641794 6334
1508.65508169 6335
1428.44495407 6336
1358.08996333 6337
1297.94857611 6338
1246.78103811 6339
1201.70483278 6340
1159.75666284 6341
1117.98021908 6342
1074.36412018 6343
1028.4937515 6344
980.107830623 6345
928.945714897 6346
875.906639784 6347
825.201695005 6348
781.635780987 6349
750.02267584 6350
733.733009643 6351
728.908883595 6352
729.437409163 6353
729.192679674 6354
722.593901802 6355
709.050884449 6356
690.618253493 6357
669.378779421 6358
647.372942178 6359
625.81449614 6360
605.19850072 6361
585.997105819 6362
568.676473939 6363
553.373997682 6364
539.762869995 6365
527.480503283 6366
516.164331186 6367
505.721290196 6368
496.688678567 6369
489.694743194 6370
485.368969942 6371
484.025546491 6372
484.711727642 6373
486.155266261 6374
487.081612931 6375
486.242203627 6376
482.586889158 6377
475.149930385 6378
462.963787983 6379
445.291926288 6380
424.472213132 6381
405.026441753 6382
391.530957316 6383
388.427266986 6384
395.89744757 6385
409.237779109 6386
423.467693075 6387
433.616998262 6388
436.75759228 6389
433.775727913 6390
425.975735744 6391
414.664729059 6392
401.110405691 6393
386.452679532 6394
371.808346159 6395
358.296428476 6396
346.911763478 6397
337.9709748 6398
331.563444204 6399
327.778242642 6400
326.737745776 6401
328.879858982 6402
334.818986235 6403
345.172759267 6404
360.407805644 6405
378.07175122 6406
393.077229836 6407
400.23344721 6408
394.43762213 6409
375.449753593 6410
350.058613499 6411
325.61300114 6412
309.464093361 6413
305.860332715 6414
311.714315925 6415
322.876023295 6416
335.187655142 6417
344.976393902 6418
350.523849577 6419
350.596740973 6420
343.959358697 6421
329.990613581 6422
312.304517814 6423
296.301029995 6424
287.396058813 6425
290.567798945 6426
305.169123882 6427
326.703249517 6428
350.590573294 6429
372.309983796 6430
389.141988258 6431
400.332423486 6432
405.225345558 6433
403.182130039 6434
395.131602451 6435
384.735129692 6436
375.934367171 6437
372.676550851 6438
377.152985542 6439
386.522542107 6440
397.04557196 6441
404.97539063 6442
407.321767266 6443
404.767106869 6444
399.101342118 6445
392.117957413 6446
385.540512673 6447
380.485074729 6448
377.765460518 6449
378.19519803 6450
382.478390424 6451
389.578571169 6452
397.070783338 6453
402.487007484 6454
403.415513833 6455
399.617193579 6456
393.58066608 6457
387.971761238 6458
385.448136896 6459
386.91693289 6460
389.771109727 6461
390.979669811 6462
387.506493721 6463
377.849013922 6464
365.557884181 6465
355.226995581 6466
351.458576799 6467
357.675192507 6468
370.738780733 6469
385.249761039 6470
395.796451892 6471
397.580839466 6472
391.800532084 6473
383.011643018 6474
375.81521812 6475
374.607967223 6476
379.856136567 6477
388.553611246 6478
397.570209771 6479
403.811615547 6480
406.060775234 6481
405.700535222 6482
404.306907725 6483
403.45736544 6484
404.478436413 6485
408.1428478 6486
415.151156041 6487
426.205130136 6488
441.677932467 6489
460.756646141 6490
482.360486213 6491
505.406512858 6492
529.036018264 6493
553.747906763 6494
580.546453714 6495
610.438441487 6496
644.366442219 6497
682.583911106 6498
724.933311691 6499
771.251627935 6500
821.294776935 6501
873.187124512 6502
923.533941064 6503
968.876495989 6504
1005.79293406 6505
1032.96993946 6506
1052.1469474 6507
1065.30431767 6508
1074.42059694 6509
1080.08437663 6510
1079.70037249 6511
1070.22599679 6512
1048.61238426 6513
1013.7285601 6514
971.585647391 6515
929.866668583 6516
896.267893321 6517
876.910219174 6518
868.12984058 6519
862.52751613 6520
852.68313639 6521
832.083708197 6522
803.994588335 6523
777.600606548 6524
762.184367458 6525
766.526850499 6526
788.800670566 6527
817.221426855 6528
839.600126304 6529
843.897220712 6530
826.529655539 6531
796.130726035 6532
762.30018365 6533
734.636928036 6534
718.914897487 6535
712.235661961 6536
710.504591386 6537
709.619549019 6538
706.14884892 6539
699.120877503 6540
688.122488823 6541
672.739827609 6542
652.765734482 6543
629.22929439 6544
603.619051254 6545
577.426467084 6546
552.100836778 6547
528.635255947 6548
507.75755953 6549
490.192975455 6550
476.653960879 6551
467.577525707 6552
463.153475087 6553
463.563404667 6554
468.949619785 6555
477.720045035 6556
485.901722431 6557
489.342532753 6558
483.901010507 6559
468.536741494 6560
448.800143653 6561
431.092923629 6562
421.827562665 6563
424.969839652 6564
436.194895405 6565
449.420751225 6566
458.55494078 6567
458.687027678 6568
451.418207115 6569
440.568944193 6570
429.968326066 6571
423.191229266 6572
421.438384586 6573
424.638135445 6574
432.706556951 6575
445.394227385 6576
459.727531067 6577
470.49597813 6578
472.414059364 6579
460.35755136 6580
435.193023493 6581
405.235790702 6582
379.280093411 6583
366.086828354 6584
369.018866048 6585
381.18708647 6586
394.546680813 6587
401.040842314 6588
395.456582174 6589
381.047692564 6590
362.637319654 6591
345.057229772 6592
332.441267299 6593
325.575140324 6594
324.251354939 6595
328.261891214 6596
337.149357815 6597
348.531979592 6598
359.128351078 6599
365.646535802 6600
364.979191858 6601
356.55915532 6602
341.63207923 6603
321.484798663 6604
297.465231647 6605
272.464596224 6606
251.030402637 6607
237.799359346 6608
237.373316016 6609
251.46938648 6610
277.138245377 6611
311.000876368 6612
349.674134415 6613
390.353906975 6614
431.680094918 6615
472.511120524 6616
511.703186633 6617
548.163551409 6618
581.005366275 6619
609.390434609 6620
632.479142799 6621
649.522467916 6622
660.341491742 6623
664.976148188 6624
663.466976243 6625
656.010841211 6626
644.410973962 6627
631.418060116 6628
619.799796633 6629
612.185411379 6630
608.56493929 6631
606.598678061 6632
603.862812774 6633
597.970890006 6634
588.195760195 6635
575.994416609 6636
562.975340572 6637
550.740407057 6638
539.717075091 6639
528.005413553 6640
513.428797916 6641
493.807111697 6642
468.396577157 6643
440.817455489 6644
415.520837764 6645
396.966088499 6646
388.61559889 6647
389.143608871 6648
395.794315086 6649
405.806917634 6650
416.354606726 6651
424.145584514 6652
425.670757226 6653
417.413546482 6654
396.35067734 6655
365.814967998 6656
333.529504118 6657
307.318444893 6658
294.73614277 6659
296.571303359 6660
306.693588217 6661
318.649271834 6662
326.035785726 6663
325.952665954 6664
320.794924884 6665
313.400928219 6666
306.610932658 6667
302.541125993 6668
301.663457388 6669
304.224734725 6670
310.472253613 6671
319.957656317 6672
329.818659022 6673
336.664747521 6674
337.09900927 6675
328.814293769 6676
315.421839523 6677
302.530710411 6678
295.762275074 6679
299.927490085 6680
312.788441938 6681
328.504333127 6682
341.194946227 6683
345.267682262 6684
339.46078611 6685
325.786731375 6686
306.342616237 6687
283.266202274 6688
259.721814838 6689
240.009058064 6690
228.493801756 6691
229.493572676 6692
243.466735761 6693
264.601869192 6694
286.503048243 6695
302.769148873 6696
309.123419778 6697
306.446020036 6698
296.383906944 6699
280.587181942 6700
261.278512174 6701
242.779459287 6702
229.901827874 6703
227.466288922 6704
238.924801483 6705
259.911962151 6706
283.296705688 6707
301.931139846 6708
309.408415855 6709
306.077977436 6710
295.860371299 6711
282.716305846 6712
270.4874268 6713
261.118478404 6714
255.083744872 6715
252.820475001 6716
254.704763595 6717
259.349650196 6718
263.388693355 6719
263.343693672 6720
255.778201402 6721
240.565919077 6722
222.980581535 6723
208.802358422 6724
203.81151771 6725
210.318246455 6726
222.273916097 6727
232.387825153 6728
233.354696817 6729
220.794566838 6730
200.964930077 6731
182.545291675 6732
174.232355043 6733
182.512079536 6734
201.575999835 6735
221.37818989 6736
231.84881647 6737
224.356041589 6738
202.786351847 6739
177.422789863 6740
158.619891634 6741
156.039793047 6742
169.300617138 6743
190.571075101 6744
211.82918281 6745
225.248573219 6746
228.435879342 6747
224.782733965 6748
217.967852783 6749
211.650696273 6750
207.970778107 6751
206.741124134 6752
207.577957142 6753
210.093547603 6754
213.204354651 6755
214.281339254 6756
210.482333701 6757
198.959675294 6758
178.929705426 6759
156.444870205 6760
138.979928591 6761
134.025223349 6762
146.81882476 6763
171.355225238 6764
198.131466156 6765
217.623736366 6766
221.690969517 6767
212.811114055 6768
198.343260031 6769
185.687344192 6770
181.627655335 6771
185.378028213 6772
191.134683302 6773
192.992682444 6774
185.328969682 6775
168.620416493 6776
149.111648707 6777
133.285487094 6778
127.50917948 6779
132.761943704 6780
142.777927478 6781
150.770046139 6782
149.975310468 6783
138.080315918 6784
121.345534939 6785
107.017557375 6786
102.354271294 6787
111.39904869 6788
129.180819535 6789
149.154557058 6790
164.761217828 6791
171.113446251 6792
170.292627868 6793
166.190903499 6794
162.708561056 6795
163.259627102 6796
168.199710779 6797
176.712234052 6798
187.976541617 6799
201.193726975 6800
215.78705559 6801
231.301908235 6802
247.28415779 6803
263.184164798 6804
276.998548296 6805
285.579930701 6806
285.74358239 6807
274.478073204 6808
253.735020112 6809
230.950353546 6810
213.857990175 6811
210.115184235 6812
221.741816473 6813
241.975427795 6814
263.280183773 6815
278.120462584 6816
282.273670609 6817
278.881374302 6818
272.081016008 6819
266.018511478 6820
263.538352915 6821
263.284586937 6822
263.055630726 6823
260.645039056 6824
254.416641623 6825
245.442852965 6826
235.59679961 6827
226.75603055 6828
220.51905367 6829
216.507284375 6830
213.494195653 6831
210.24750066 6832
205.692356327 6833
200.465793287 6834
196.24639096 6835
194.73094404 6836
197.421688887 6837
202.366085172 6838
204.669454493 6839
199.333010039 6840
181.560351263 6841
153.296309822 6842
124.460696224 6843
105.454484699 6844
106.592787306 6845
130.437767918 6846
166.72228462 6847
203.955830786 6848
230.640176581 6849
239.874709251 6850
235.517227153 6851
222.965911392 6852
207.630700352 6853
194.470730025 6854
186.909708788 6855
188.056697058 6856
201.027473508 6857
227.675821273 6858
263.687319142 6859
302.864294559 6860
338.994678647 6861
366.404876896 6862
383.334774839 6863
389.721042128 6864
385.507569552 6865
371.055025598 6866
351.210572191 6867
333.561848876 6868
325.751570884 6869
334.996472214 6870
360.881087444 6871
396.534713638 6872
434.86951664 6873
468.886310524 6874
494.779906582 6875
512.464138911 6876
522.062161358 6877
523.717260057 6878
518.895857449 6879
511.186588844 6880
504.376973913 6881
502.248321739 6882
505.56370657 6883
508.344255152 6884
503.686261748 6885
484.672415047 6886
447.979080829 6887
401.668900813 6888
356.065115712 6889
321.514064776 6890
305.776352367 6891
304.824607709 6892
311.28470861 6893
317.765952564 6894
317.905319395 6895
312.131911806 6896
303.602760134 6897
295.489128476 6898
290.602675137 6899
288.238458577 6900
285.726810465 6901
280.370811784 6902
269.673859016 6903
254.207532084 6904
236.904316912 6905
220.763290944 6906
208.718152946 6907
201.918118263 6908
199.646146909 6909
201.09583141 6910
205.426219619 6911
210.22479661 6912
210.844323296 6913
202.457654171 6914
180.268179899 6915
144.517620138 6916
105.286274286 6917
73.8115051218 6918
61.3470685165 6919
73.8603574215 6920
102.977775335 6921
137.906109928 6922
167.828292361 6923
184.554407232 6924
189.9719692 6925
188.37537237 6926
184.068524055 6927
181.210985908 6928
183.141138712 6929
192.92578856 6930
213.638428112 6931
247.531991691 6932
290.451993254 6933
335.239399695 6934
374.70227452 6935
402.036679657 6936
415.034858012 6937
414.421520058 6938
400.970520802 6939
375.600845163 6940
341.781990856 6941
305.184045469 6942
271.561090407 6943
246.543038576 6944
231.606051249 6945
223.39767798 6946
218.287758937 6947
212.676934171 6948
205.324463848 6949
198.674072533 6950
195.494438388 6951
198.541299834 6952
207.389422605 6953
214.86553884 6954
212.921516028 6955
193.496165238 6956
153.531869073 6957
104.586683884 6958
60.8912604316 6959
36.7072350143 6960
41.596216674 6961
65.9971295598 6962
95.4866968117 6963
115.610189149 6964
114.910176047 6965
99.0317434562 6966
79.6467054351 6967
68.4587713251 6968
75.3819744738 6969
95.7934213172 6970
118.058168104 6971
130.47157578 6972
122.412296783 6973
96.1903125336 6974
62.5104767529 6975
32.2420876812 6976
15.7486809542 6977
13.9259299305 6978
19.4658891338 6979
24.7746629376 6980
22.4514937685 6981
11.3503435807 6982
0.0 6983
0.0 6984
0.0 6985
0.0 6986
14.6031263909 6987
27.2331796703 6988
29.195500033 6989
17.4012138048 6990
0.0 6991
0.0 6992
0.0 6993
0.0 6994
0.0 6995
0.0 6996
0.0 6997
2.60736623576 6998
8.40296181682 6999
7.70293820628 7000
0.0 7001
0.0 7002
0.0 7003
0.0 7004
0.0 7005
0.0 7006
0.0 7007
16.3851794611 7008
37.2948643626 7009
37.0140423136 7010
17.9049546164 7011
0.0 7012
0.0 7013
0.0 7014
0.0 7015
0.0 7016
0.0 7017
20.9286116119 7018
61.5221675097 7019
98.9660285575 7020
124.591618677 7021
129.906221725 7022
114.41441058 7023
88.3179812023 7024
62.5843184861 7025
48.1337799813 7026
49.8525315907 7027
61.9830097867 7028
77.6735417213 7029
90.0676788235 7030
94.7888719744 7031
93.2699868555 7032
87.7749130333 7033
80.5723183047 7034
73.9709093115 7035
70.3946969059 7036
72.2942278631 7037
82.1251802531 7038
101.185327407 7039
125.851130142 7040
151.188510539 7041
172.253028602 7042
184.988054333 7043
190.480714417 7044
191.654910936 7045
191.442851452 7046
192.746392934 7047
198.187393009 7048
210.257655777 7049
231.453336811 7050
263.921403298 7051
305.895756207 7052
353.171776779 7053
401.499505091 7054
446.843155493 7055
488.754881928 7056
529.698133943 7057
572.224575328 7058
618.787714846 7059
669.244588403 7060
720.727450591 7061
770.234968897 7062
814.832542864 7063
854.715931588 7064
894.325958757 7065
938.414136082 7066
991.688486606 7067
1054.3245235 7068
1118.52470722 7069
1175.66733479 7070
1217.1283615 7071
1237.86226416 7072
1241.08517745 7073
1231.17726086 7074
1212.52851008 7075
1189.32845699 7076
1165.14384997 7077
1143.42842914 7078
1127.64342228 7079
1121.42283738 7080
1129.07484061 7081
1155.08634988 7082
1203.95237676 7083
1277.52264712 7084
1363.35067857 7085
1444.17704562 7086
1502.70278772 7087
1524.47930346 7088
1515.91175438 7089
1492.60153971 7090
1470.2223094 7091
1462.73736102 7092
1466.86342234 7093
1469.44294728 7094
1457.17366675 7095
1417.62827772 7096
1350.91219528 7097
1266.34538061 7098
1173.47821227 7099
1081.73732108 7100
997.544501527 7101
924.504529513 7102
866.119072695 7103
825.769980881 7104
802.676823828 7105
791.082182991 7106
784.924482073 7107
778.21029185 7108
769.587267968 7109
764.80386506 7110
770.218960902 7111
792.170810715 7112
832.68549892 7113
885.348480052 7114
942.754230736 7115
997.484834873 7116
1044.11520663 7117
1082.26909678 7118
1112.35491817 7119
1134.78158353 7120
1150.40321668 7121
1161.53112486 7122
1170.77909348 7123
1180.76831472 7124
1192.53130082 7125
1200.24929157 7126
1196.24552597 7127
1172.82474851 7128
1124.38780635 7129
1057.2622499 7130
981.978925823 7131
909.099267959 7132
847.761162868 7133
796.312629041 7134
748.211242428 7135
696.875019348 7136
636.691757245 7137
571.927808554 7138
512.568680478 7139
468.693167731 7140
449.490966275 7141
451.524141891 7142
462.109422391 7143
468.321903858 7144
457.738642876 7145
428.558018444 7146
388.774521409 7147
346.767610155 7148
310.756400614 7149
283.478535354 7150
261.337283646 7151
240.375179647 7152
216.681542657 7153
189.238192444 7154
161.228957701 7155
136.175889658 7156
117.588512279 7157
106.830648721 7158
101.339042849 7159
98.1256824574 7160
94.1977591479 7161
87.5001640824 7162
78.155383227 7163
66.5932295118 7164
53.2449885294 7165
38.9941226346 7166
26.0573487746 7167
16.9023218618 7168
14.0042450967 7169
18.3350487307 7170
25.1510972754 7171
28.3414648031 7172
21.7762693884 7173
1.37595359706 7174
0.0 7175
0.0 7176
0.0 7177
0.0 7178
0.0 7179
0.0 7180
0.0 7181
0.0 7182
0.0 7183
0.0 7184
0.0 7185
0.0 7186
0.0 7187
10.4818134171 7188
33.8665093318 7189
43.2479957308 7190
37.5654713044 7191
21.6339246981 7192
0.432403275233 7193
0.0 7194
0.0 7195
0.0 7196
0.0 7197
0.0 7198
6.86007559581 7199
39.5248123417 7200
60.586477785 7201
57.8236153326 7202
29.1442139864 7203
0.0 7204
0.0 7205
0.0 7206
0.0 7207
0.0 7208
0.0 7209
0.0 7210
0.0 7211
0.0 7212
0.0 7213
0.0 7214
0.0 7215
0.0 7216
0.0 7217
0.0 7218
0.0 7219
0.0 7220
0.0 7221
0.0 7222
0.0 7223
0.0 7224
0.0 7225
0.0 7226
0.0 7227
0.0 7228
0.0 7229
0.0 7230
0.0 7231
0.0 7232
0.0 7233
0.0 7234
0.0 7235
0.0 7236
0.0 7237
0.0 7238
0.0 7239
0.0 7240
0.0 7241
0.0 7242
0.0 7243
0.0 7244
0.0 7245
0.0 7246
0.0 7247
0.0 7248
0.0 7249
0.0 7250
0.0 7251
0.0 7252
0.0 7253
0.25735726609 7254
6.53331411834 7255
3.60920311699 7256
0.0 7257
0.0 7258
0.0 7259
0.0 7260
0.0 7261
0.0 7262
0.0 7263
0.0 7264
0.0 7265
0.0 7266
0.0 7267
0.0 7268
0.0 7269
0.0 7270
0.0 7271
0.0 7272
0.0 7273
0.0 7274
0.0 7275
0.0 7276
0.0 7277
0.0 7278
0.0 7279
0.0 7280
0.0 7281
0.0 7282
0.0 7283
0.0 7284
0.0 7285
0.0 7286
0.0 7287
0.0 7288
0.0 7289
0.0 7290
0.0 7291
0.0 7292
0.0 7293
0.0 7294
0.0 7295
0.0 7296
0.0 7297
23.1498466822 7298
36.30300053 7299
