84.3765562498 3800
126.666738708 3801
183.729761626 3802
239.216127614 3803
276.837448437 3804
281.114855372 3805
253.394162562 3806
211.557232505 3807
174.118498219 3808
159.516788561 3809
178.518205944 3810
214.922170921 3811
246.633771333 3812
251.652709703 3813
209.74638052 3814
128.251051005 3815
36.9623812784 3816
0.0 3817
0.0 3818
0.0 3819
80.9230025984 3820
179.100483693 3821
255.464728073 3822
280.997604482 3823
258.316710737 3824
211.270505142 3825
163.990839494 3826
140.441863771 3827
152.401247846 3828
183.720374743 3829
214.409390355 3830
224.580919357 3831
196.791940073 3832
135.849153223 3833
58.7460659912 3834
0.0 3835
0.0 3836
0.0 3837
0.0 3838
0.0 3839
0.0 3840
0.0 3841
19.098316532 3842
58.8257191562 3843
83.7975711737 3844
85.0769937144 3845
61.774317574 3846
25.1343935416 3847
0.0 3848
0.0 3849
0.0 3850
0.0 3851
0.0 3852
8.15473982031 3853
23.3970957898 3854
29.3179656441 3855
29.370106629 3856
27.3664082191 3857
27.0970021794 3858
31.6355823616 3859
40.9206514842 3860
54.0159224712 3861
69.9905874083 3862
87.8659481702 3863
105.450552689 3864
119.354509907 3865
126.156780281 3866
122.457934007 3867
106.550072085 3868
82.5965360145 3869
56.0196961263 3870
32.2080568483 3871
16.2756528049 3872
9.48217231997 3873
10.02021764 3874
16.0076594142 3875
25.5734978595 3876
36.4368976276 3877
45.1749371935 3878
48.190036925 3879
41.9078295595 3880
23.4124882224 3881
0.0 3882
0.0 3883
0.0 3884
0.0 3885
0.0 3886
25.2966726191 3887
60.929433149 3888
82.4012793938 3889
78.8835230597 3890
53.295631812 3891
15.4557952472 3892
0.0 3893
0.0 3894
0.0 3895
0.0 3896
0.0 3897
0.0 3898
0.0 3899
0.0 3900
23.6715856912 3901
45.6688901641 3902
54.0226584997 3903
47.7655886107 3904
32.6617866519 3905
14.905721834 3906
0.651169070036 3907
0.0 3908
0.0 3909
8.48185460934 3910
24.8831813163 3911
45.8533914101 3912
68.5340556682 3913
88.5567891381 3914
101.509173192 3915
103.007905664 3916
90.5660661591 3917
68.6014772904 3918
43.0909176845 3919
19.9719988667 3920
4.86003960913 3921
0.0 3922
0.0 3923
0.369118603322 3924
2.10217673354 3925
1.41992205313 3926
0.0 3927
0.0 3928
0.493606789517 3929
6.35146614555 3930
11.9923612718 3931
9.48474268942 3932
0.0 3933
0.0 3934
0.0 3935
0.0 3936
0.0 3937
0.0 3938
0.0 3939
0.0 3940
0.0 3941
0.0 3942
0.0 3943
0.0 3944
0.0 3945
0.0 3946
0.0 3947
0.0 3948
0.0 3949
0.0 3950
0.0 3951
0.0 3952
0.0 3953
0.0 3954
0.0 3955
0.0 3956
0.0 3957
0.0 3958
0.0 3959
0.0 3960
0.0 3961
0.0 3962
0.0 3963
0.0 3964
11.7648571313 3965
1.42016953814 3966
0.0 3967
0.0 3968
0.0 3969
0.0 3970
0.0 3971
8.21456225142 3972
38.4064326355 3973
41.1560550625 3974
8.75586079894 3975
0.0 3976
0.0 3977
0.0 3978
0.0 3979
0.0 3980
0.0 3981
0.0 3982
0.0 3983
0.0 3984
0.0 3985
0.0 3986
0.0 3987
0.0 3988
0.0 3989
0.0 3990
0.0 3991
0.0 3992
0.0 3993
0.0 3994
0.0 3995
18.5276577123 3996
41.9336984559 3997
64.9039020916 3998
83.9976270469 3999
95.7925325601 4000
97.0118082468 4001
87.5143775932 4002
70.3864882364 4003
48.8470172568 4004
26.0976813403 4005
5.26383391742 4006
0.0 4007
0.0 4008
0.0 4009
0.0 4010
23.0407409913 4011
50.8887049861 4012
74.3717119232 4013
86.3309747039 4014
83.0488755621 4015
69.4955413197 4016
51.9754882425 4017
36.761593865 4018
29.5620509139 4019
30.7252612406 4020
37.5318638153 4021
47.2392301432 4022
57.1246709216 4023
65.1516948822 4024
70.5443665883 4025
72.6666090286 4026
70.8853056922 4027
66.5907749442 4028
75.0199409998 4029
117.147912345 4030
213.872220521 4031
385.84472925 4032
647.094917093 4033
1002.67774114 4034
1456.98613247 4035
2014.39577882 4036
2681.13299695 4037
3472.3659451 4038
4405.8858818 4039
5499.40887896 4040
6768.40322325 4041
8177.63781225 4042
9641.07258658 4043
11070.8019918 4044
12379.3048066 4045
13494.2841843 4046
14393.9067188 4047
15067.0079397 4048
15502.4639961 4049
15689.693455 4050
15625.2116219 4051
15310.7514724 4052
14748.1533358 4053
13939.3154448 4054
12907.662257 4055
11728.0000074 4056
10482.3565142 4057
9252.4254507 4058
8113.54166181 4059
7085.69475186 4060
6159.33832666 4061
5324.68739244 4062
4572.05016032 4063
3895.93432925 4064
3297.98821388 4065
2780.55421487 4066
2345.96815577 4067
1995.79757123 4068
1726.91782802 4069
1534.43592545 4070
1413.47599291 4071
1359.0147413 4072
1360.21973614 4073
1399.10595339 4074
1457.31047709 4075
1516.53762435 4076
1561.70057053 4077
1591.05048988 4078
1606.35361678 4079
1609.36952034 4080
1601.74085668 4081
1583.02190042 4082
1550.91207402 4083
1503.05338598 4084
1437.09679607 4085
1352.18090152 4086
1251.75438683 4087
1140.03321529 4088
1021.21897646 4089
899.522083329 4090
779.402837402 4091
665.475683753 4092
562.342910941 4093
474.573319405 4094
404.022849447 4095
347.06651475 4096
299.427998498 4097
256.844728929 4098
215.659924487 4099
176.62895678 4100
142.486358906 4101
115.967954061 4102
99.7472521491 4103
93.84064882 4104
94.4726699301 4105
97.5871833028 4106
99.140181334 4107
96.0409949977 4108
89.8789250919 4109
83.6845164126 4110
80.4799749269 4111
83.0969779847 4112
90.0511068991 4113
95.4852361841 4114
93.3628421182 4115
77.6647467542 4116
45.8103647934 4117
6.6678482446 4118
0.0 4119
0.0 4120
0.0 4121
0.0 4122
19.7848178937 4123
51.1947452536 4124
64.8308114965 4125
54.3320509607 4126
28.9155137267 4127
0.0 4128
0.0 4129
0.0 4130
0.0 4131
8.2533132023 4132
30.0492222063 4133
45.3910223564 4134
50.8616579479 4135
49.3049638483 4136
44.1042204396 4137
38.634401213 4138
35.7688103275 4139
35.6789440626 4140
37.6206307309 4141
40.8507533971 4142
44.6225962172 4143
48.044881284 4144
50.0682659733 4145
49.6376587988 4146
45.7003677005 4147
37.7124982279 4148
26.9562411626 4149
15.1217447015 4150
3.89534257731 4151
0.0 4152
0.0 4153
0.0 4154
0.0 4155
0.0 4156
5.15039231771 4157
15.5137021098 4158
22.4274597127 4159
22.1174881301 4160
11.4688268654 4161
0.0 4162
0.0 4163
0.0 4164
0.0 4165
0.0 4166
0.0 4167
0.0 4168
0.0 4169
0.0 4170
0.0 4171
3.95035799119 4172
13.2787671593 4173
31.5102253891 4174
57.1502500856 4175
82.7190730295 4176
100.438822915 4177
102.546754924 4178
84.5613780081 4179
53.9015094934 4180
20.6770804829 4181
0.0 4182
0.0 4183
0.0 4184
12.4805120473 4185
32.9748658511 4186
48.6385780138 4187
54.9967137541 4188
54.2775146256 4189
49.6787643915 4190
44.3923215156 4191
41.2444119364 4192
39.9358397153 4193
38.5661477443 4194
35.2252175096 4195
28.0330017823 4196
16.8104638407 4197
4.06866577947 4198
0.0 4199
0.0 4200
0.0 4201
0.0 4202
0.0 4203
0.0675319941337 4204
5.11959249188 4205
6.63986047598 4206
3.20493396859 4207
0.0 4208
0.0 4209
0.0 4210
0.0 4211
0.0 4212
0.0 4213
0.0 4214
0.0 4215
16.739027119 4216
54.8703596752 4217
71.3263279209 4218
60.1520170573 4219
32.0456666007 4220
0.0 4221
0.0 4222
0.0 4223
0.0 4224
12.7949444411 4225
38.5101782725 4226
57.1777123159 4227
64.3560586147 4228
61.2109699776 4229
49.3486643037 4230
30.3726375517 4231
6.10863446964 4232
0.0 4233
0.0 4234
0.0 4235
0.0 4236
0.0 4237
0.0 4238
0.0 4239
0.0 4240
0.0 4241
14.9098574916 4242
39.3974777062 4243
48.5943826023 4244
35.513877062 4245
5.64551023338 4246
0.0 4247
0.0 4248
0.0 4249
0.0 4250
23.1918801688 4251
67.465403575 4252
96.9745689589 4253
99.3922219351 4254
79.9483572578 4255
51.0986274663 4256
25.2999330709 4257
14.7518412113 4258
22.9589715939 4259
42.4310030627 4260
64.983406026 4261
82.4459190924 4262
88.7761432778 4263
86.6472830042 4264
80.9686794102 4265
76.6410541193 4266
78.2918345299 4267
86.0980085693 4268
96.5522505764 4269
106.042017647 4270
110.96449358 4271
109.103818461 4272
101.763736747 4273
90.7971500058 4274
78.0536568061 4275
65.3097002854 4276
53.7005741502 4277
44.0177985213 4278
37.0481817739 4279
33.5471605193 4280
32.2603687245 4281
28.6937310628 4282
18.0669495274 4283
0.0 4284
0.0 4285
0.0 4286
0.0 4287
0.0 4288
0.0 4289
0.0 4290
0.0 4291
26.7810156422 4292
65.4630682324 4293
77.3827112364 4294
68.3306462765 4295
47.3667423137 4296
23.5333447417 4297
5.33813360924 4298
0.0 4299
0.0 4300
0.0 4301
0.0 4302
0.0 4303
0.0 4304
0.0 4305
0.0 4306
0.0 4307
0.0 4308
0.0 4309
0.0 4310
0.0 4311
0.0 4312
0.0 4313
0.0 4314
0.0 4315
0.0 4316
0.0 4317
0.0 4318
0.0 4319
0.0 4320
0.0 4321
6.32612059158 4322
22.6292371816 4323
33.2799379635 4324
36.3975094016 4325
35.2423156756 4326
33.8337873755 4327
36.1823297808 4328
45.805096938 4329
62.0911598909 4330
82.3488113614 4331
103.876335912 4332
124.019305669 4333
142.403813925 4334
162.075106253 4335
186.353226158 4336
218.55032983 4337
261.901785049 4338
319.298324703 4339
393.520617177 4340
487.342329592 4341
604.044225556 4342
757.593899671 4343
972.023840585 4344
1271.70179128 4345
1680.94560226 4346
2235.62255764 4347
3004.86734124 4348
4063.59132421 4349
5486.51181031 4350
7334.97601783 4351
9534.83582736 4352
11932.6023674 4353
14374.1579034 4354
16706.3866033 4355
18826.7780547 4356
20720.0560395 4357
22379.6547698 4358
23799.0287713 4359
24962.2560024 4360
25799.7645693 4361
26223.1401534 4362
26144.1923364 4363
25479.4124072 4364
24261.3488694 4365
22646.534917 4366
20797.1739083 4367
18875.0217061 4368
17013.1028635 4369
15250.9065292 4370
13608.6553789 4371
12106.5147376 4372
10762.4778558 4373
9569.1121502 4374
8502.22408053 4375
7537.38839845 4376
6650.3072915 4377
5824.06318775 4378
5055.99593522 4379
4345.08552731 4380
3690.31393833 4381
3091.26047705 4382
2551.34992706 4383
2075.52104742 4384
1668.70009298 4385
1335.58998893 4386
1074.32274061 4387
875.293674052 4388
728.479393326 4389
623.885995313 4390
551.327500241 4391
499.837761338 4392
458.298875307 4393
415.627497362 4394
361.601408616 4395
297.265282436 4396
231.763583873 4397
174.391089548 4398
134.384262072 4399
116.185669152 4400
114.1482839 4401
121.361562815 4402
130.937321349 4403
136.68994647 4404
137.251881864 4405
133.324219936 4406
125.613886179 4407
114.823147464 4408
101.563767953 4409
86.333870376 4410
69.6227720044 4411
51.9181632619 4412
33.9782349602 4413
17.6249183118 4414
4.93492727259 4415
0.0 4416
0.0 4417
6.12488998433 4418
17.6379318779 4419
30.3240986383 4420
41.3490367297 4421
49.0985706408 4422
54.6582919469 4423
59.473583061 4424
64.9846083423 4425
72.1292830267 4426
78.1412219734 4427
78.5947717433 4428
69.0726652515 4429
45.3178133402 4430
8.8335990455 4431
0.0 4432
0.0 4433
0.0 4434
0.0 4435
0.0 4436
0.0 4437
0.0 4438
24.6170112983 4439
41.0125290203 4440
48.8354093761 4441
48.50891286 4442
40.4568712153 4443
25.563535122 4444
5.7615459683 4445
0.0 4446
0.0 4447
0.0 4448
0.0 4449
0.0 4450
0.0 4451
0.0 4452
0.0 4453
0.0 4454
0.0 4455
18.2248101908 4456
34.5203680654 4457
42.375853933 4458
42.785136881 4459
36.738132432 4460
25.3123381971 4461
10.980224571 4462
0.0 4463
0.0 4464
0.0 4465
0.0 4466
8.71131383474 4467
27.6684090917 4468
47.8124623988 4469
66.3133051965 4470
81.04940504 4471
90.2226624571 4472
92.0447072821 4473
84.7979509019 4474
69.195100732 4475
49.0852523249 4476
28.5094338298 4477
11.4903407128 4478
1.15995905466 4479
0.0 4480
0.0 4481
3.51367915203 4482
11.4232616053 4483
20.3636518893 4484
28.2282296642 4485
32.9106827682 4486
32.3252306139 4487
26.3537598383 4488
19.1157795026 4489
15.2648915729 4490
19.4323741809 4491
35.2560437551 4492
59.5236014063 4493
86.1057878521 4494
108.891622484 4495
121.900224869 4496
122.652782588 4497
112.95942935 4498
94.8853231908 4499
70.4857471668 4500
42.2963670973 4501
14.657713062 4502
0.0 4503
0.0 4504
0.0 4505
0.0 4506
15.4112512669 4507
33.9021475039 4508
44.7543211377 4509
44.282934322 4510
34.5626758313 4511
18.3465763433 4512
0.0 4513
0.0 4514
0.0 4515
0.0 4516
0.0 4517
0.0 4518
0.0 4519
0.0 4520
8.16002505271 4521
36.8334591706 4522
63.2151905817 4523
82.8180689087 4524
90.9712224145 4525
83.0293819805 4526
55.1964375463 4527
13.2777828264 4528
0.0 4529
0.0 4530
0.0 4531
0.0 4532
0.0 4533
0.0 4534
21.9576622067 4535
29.8060640174 4536
23.6567770265 4537
10.8743785284 4538
0.0 4539
0.0 4540
0.0 4541
9.18951302245 4542
19.6415816144 4543
26.2700900517 4544
26.328012922 4545
21.8826872689 4546
15.8685895789 4547
11.2033338612 4548
10.4244593622 4549
12.4721227539 4550
14.2530948999 4551
12.6685054021 4552
4.68555541904 4553
0.0 4554
0.0 4555
0.0 4556
0.0 4557
0.0 4558
0.0 4559
10.5508036805 4560
26.1998750835 4561
30.4169390917 4562
23.094393572 4563
9.64152697644 4564
0.0 4565
0.0 4566
0.0 4567
0.0 4568
0.132772186251 4569
9.42202315998 4570
16.5625295731 4571
20.9119107588 4572
22.7797517438 4573
22.4800704761 4574
20.3345383159 4575
17.0693778579 4576
13.9559076815 4577
12.2964835808 4578
13.3852237866 4579
17.6320459691 4580
21.924055754 4581
22.2839412666 4582
14.7597835471 4583
0.0 4584
0.0 4585
0.0 4586
0.0 4587
0.0 4588
0.0 4589
3.47558783976 4590
41.5464738238 4591
65.9504162867 4592
66.5183848568 4593
47.4831165709 4594
18.7643263095 4595
0.0 4596
0.0 4597
0.0 4598
0.0 4599
0.0 4600
0.0 4601
0.0 4602
0.0 4603
0.0 4604
0.0 4605
0.0 4606
0.0 4607
41.6462739453 4608
81.2223465562 4609
102.678362688 4610
101.516096069 4611
84.5388083835 4612
59.5754319336 4613
34.4018042918 4614
15.7063575208 4615
4.9074746952 4616
1.76801721091 4617
6.05155030564 4618
17.4042770502 4619
33.1993822778 4620
48.7815540816 4621
59.4547254719 4622
60.5618641107 4623
49.9091082818 4624
31.4213429518 4625
9.93918855753 4626
0.0 4627
0.0 4628
0.0 4629
0.0 4630
0.0 4631
2.1110184236 4632
26.5148156427 4633
51.7089072352 4634
72.3578041354 4635
83.1642356921 4636
80.7952316778 4637
69.3033724131 4638
54.4708257158 4639
42.0383637839 4640
37.2752979175 4641
39.7956339396 4642
45.2775579853 4643
49.3488566067 4644
47.6917775314 4645
38.6368713523 4646
25.5332493053 4647
12.2707242835 4648
2.71072825344 4649
0.0 4650
2.88032657549 4651
8.82397829095 4652
15.1591402893 4653
19.3449081092 4654
20.5158096696 4655
19.4785857774 4656
17.1073411968 4657
14.269920961 4658
11.9640098517 4659
11.5620475389 4660
14.4926980546 4661
22.1738460116 4662
35.6133977065 4663
52.2383670894 4664
67.6131869218 4665
77.3186821941 4666
77.0564579203 4667
66.8018824759 4668
52.5788251926 4669
40.8295532947 4670
37.9475508358 4671
48.2142554852 4672
67.3083182382 4673
88.7162354792 4674
105.973925114 4675
113.048426342 4676
109.435193653 4677
98.7365588245 4678
84.6268077853 4679
70.7429595163 4680
59.3782451122 4681
50.1452154185 4682
42.3377040172 4683
35.254927384 4684
28.3760314081 4685
22.253976119 4686
17.8424453301 4687
16.0884570246 4688
17.8791915802 4689
22.7967381629 4690
29.0757758549 4691
34.9015656036 4692
38.4741462065 4693
38.6814657201 4694
36.3645330736 4695
32.7065179403 4696
28.8813894653 4697
25.9622312317 4698
24.1775271807 4699
23.3069593304 4700
23.1276729204 4701
23.4154647335 4702
23.7963057604 4703
23.6815703252 4704
22.4704597895 4705
19.5669512855 4706
14.6222728742 4707
8.29202599166 4708
1.48521694392 4709
0.0 4710
0.0 4711
0.0 4712
0.0 4713
0.0 4714
0.0 4715
12.8695221299 4716
27.2175333953 4717
39.9099541932 4718
47.8854123234 4719
48.7964624356 4720
44.3706847335 4721
37.8004293624 4722
32.2547313461 4723
30.7840997557 4724
34.2770084801 4725
41.4811598892 4726
51.0615875376 4727
61.694141481 4728
72.1684551572 4729
81.5646961414 4730
89.0178032836 4731
93.6697335241 4732
94.7808896219 4733
92.5576869756 4734
87.6764365704 4735
80.8116367052 4736
72.6397772692 4737
64.1376994166 4738
56.6821110707 4739
51.6669022592 4740
50.474598942 4741
53.6856597971 4742
58.8981839736 4743
63.028981133 4744
63.0199114592 4745
56.1328348381 4746
43.2829322167 4747
27.8183313104 4748
13.1054567379 4749
2.46911171256 4750
0.0 4751
0.0 4752
5.84964024258 4753
17.3201292754 4754
32.8022878796 4755
49.6988986749 4756
64.8619361965 4757
75.1688058303 4758
77.6914087034 4759
72.6734118859 4760
63.1401214561 4761
52.1883899845 4762
42.886669175 4763
37.3834245151 4764
35.6953677763 4765
37.5336867217 4766
42.6118380157 4767
50.5531255742 4768
60.3290907119 4769
70.6368513952 4770
80.1830480503 4771
87.7020405787 4772
92.4543304408 4773
94.2995470715 4774
93.1312957428 4775
88.8443928612 4776
81.8829183525 4777
74.4092608189 4778
68.9052618073 4779
67.8324423815 4780
73.2959749809 4781
84.0960803068 4782
97.1838773827 4783
109.514164211 4784
118.108619984 4785
122.246335122 4786
124.513392021 4787
127.741084579 4788
134.737600668 4789
147.22191515 4790
162.456422325 4791
176.568926495 4792
185.718780823 4793
186.442970905 4794
180.063087201 4795
171.343577638 4796
165.088002333 4797
166.036324501 4798
176.164706091 4799
192.269998243 4800
210.599208964 4801
227.429759555 4802
239.648141512 4803
247.339656766 4804
251.670941782 4805
253.800098701 4806
254.914782075 4807
256.959930105 4808
262.566946868 4809
274.371842501 4810
294.982619969 4811
324.867815554 4812
359.366673117 4813
393.095823779 4814
420.715215672 4815
437.908803768 4816
447.418590591 4817
455.025231925 4818
466.475882537 4819
487.335884067 4820
519.09941751 4821
558.646018454 4822
602.628007242 4823
647.724941489 4824
691.643723803 4825
735.189906708 4826
779.753213028 4827
826.71235874 4828
877.209877501 4829
930.266185107 4830
983.752994263 4831
1035.54708161 4832
1083.59081734 4833
1128.16272385 4834
1172.82097087 4835
1221.3443029 4836
1277.48179033 4837
1343.85598159 4838
1418.79593272 4839
1499.60313498 4840
1583.60054572 4841
1668.18193292 4842
1751.38190546 4843
1831.66912615 4844
1907.53216142 4845
1977.49271322 4846
2041.84932639 4847
2103.96127404 4848
2167.46679357 4849
2235.97656821 4850
2312.24429889 4851
2394.95051798 4852
2481.54968295 4853
2569.51550479 4854
2656.47632653 4855
2742.31179221 4856
2828.72910911 4857
2917.47640943 4858
3010.27845397 4859
3107.05996286 4860
3203.96706369 4861
3296.69406762 4862
3380.96770594 4863
3453.27603707 4864
3514.55354834 4865
3567.38394283 4866
3614.33458139 4867
3657.86414955 4868
3698.42672587 4869
3734.52081658 4870
3764.57346636 4871
3787.02559802 4872
3801.0986691 4873
3807.99338315 4874
3809.21251836 4875
3806.24838881 4876
3800.32610311 4877
3790.74055284 4878
3775.92255661 4879
3754.30952656 4880
3724.42081738 4881
3686.92901376 4882
3645.00241245 4883
3601.92653051 4884
3560.96262683 4885
3524.04746339 4886
3489.09307839 4887
3453.25494509 4888
3413.709399 4889
3367.99050701 4890
3316.75455035 4891
3262.32646789 4892
3207.03089154 4893
3153.14442091 4894
3101.56463525 4895
3051.31800308 4896
3001.30294765 4897
2950.42525269 4898
2898.14826064 4899
2845.96092368 4900
2795.80685797 4901
2749.61648876 4902
2709.19938125 4903
2675.1407093 4904
2647.25861683 4905
2625.36043294 4906
2609.24756542 4907
2598.24633344 4908
2590.9273264 4909
2585.80407447 4910
2581.39990145 4911
2576.175244 4912
2568.28689465 4913
2555.81709666 4914
2536.86198209 4915
2509.72961118 4916
2475.50261596 4917
2437.26888134 4918
2398.1409722 4919
2361.19906242 4920
2328.2527932 4921
2298.80581007 4922
2272.11835482 4923
2247.45535517 4924
2224.02968502 4925
2200.76701316 4926
2176.50807208 4927
2150.100711 4928
2120.44340109 4929
2087.17769548 4930
2050.55710817 4931
2010.85211109 4932
1968.33577564 4933
1923.90181306 4934
1879.74486606 4935
1838.21069552 4936
1801.63021297 4937
1771.86643828 4938
1748.10700464 4939
1728.57506902 4940
1711.50327707 4941
1695.16370221 4942
1678.41979925 4943
1660.68591938 4944
1641.40057419 4945
1620.00670202 4946
1596.25779865 4947
1570.6390751 4948
1543.73856943 4949
1516.14113218 4950
1488.45228479 4951
1461.43564823 4952
1435.91704432 4953
1412.71819437 4954
1392.63596381 4955
1375.97130805 4956
1362.51089632 4957
1352.01869365 4958
1344.25907294 4959
1338.45436575 4960
1332.38328349 4961
1323.59830143 4962
1309.66519152 4963
1288.65819996 4964
1262.41384723 4965
1234.47735405 4966
1208.38365185 4967
1187.55361543 4968
1172.53119531 4969
1160.57031348 4970
1148.7576063 4971
1134.1968524 4972
1115.27565025 4973
1094.14069505 4974
1073.6166985 4975
1056.51381563 4976
1045.16477603 4977
1037.95954374 4978
1031.31379993 4979
1021.64560265 4980
1005.48714768 4981
982.827689405 4982
957.964514914 4983
935.446291303 4984
919.798663024 4985
913.316367895 4986
911.11344255 4987
906.875176848 4988
894.317088452 4989
868.067228599 4990
831.091113049 4991
790.900774497 4992
755.020128904 4993
730.820434008 4994
720.607746833 4995
719.87336199 4996
723.646160651 4997
726.977777298 4998
725.812528377 4999
719.180210285 5000
706.790085568 5001
688.352538396 5002
663.828926829 5003
635.752529228 5004
608.157867312 5005
585.081538237 5006
570.476186071 5007
564.922760271 5008
564.152429951 5009
563.535852087 5010
558.462826934 5011
545.740817093 5012
527.468493406 5013
506.980213103 5014
487.597065896 5015
472.369711212 5016
461.479037644 5017
453.322820869 5018
446.27819894 5019
438.740337297 5020
429.790835498 5021
419.551688305 5022
408.231324479 5023
396.037516313 5024
383.193360112 5025
369.985655255 5026
356.716225038 5027
343.685831209 5028
331.2264337 5029
320.050991748 5030
311.120069901 5031
305.395277466 5032
303.815096748 5033
306.016868685 5034
309.572695486 5035
311.878515818 5036
310.338730609 5037
303.181804531 5038
292.049706533 5039
279.468799425 5040
267.95739921 5041
259.825511483 5042
254.883092312 5043
251.251972861 5044
247.027723968 5045
240.330684305 5046
230.635760632 5047
219.63832574 5048
209.235337933 5049
201.318437748 5050
197.188490835 5051
195.620324906 5052
194.713079096 5053
192.571091144 5054
187.447175379 5055
179.445346877 5056
169.951527767 5057
160.373924773 5058
152.110440295 5059
146.060946802 5060
142.293733074 5061
140.797814412 5062
141.562268928 5063
144.347580203 5064
147.909182431 5065
150.729267469 5066
151.293544967 5067
148.271116131 5068
142.694277581 5069
137.253116933 5070
134.666384525 5071
137.613644922 5072
146.193904729 5073
156.145434547 5074
162.793658412 5075
161.473352636 5076
149.161884712 5077
130.066126259 5078
110.380957496 5079
96.2892696945 5080
93.4519788887 5081
100.819836625 5082
112.630512326 5083
123.034021981 5084
126.239370405 5085
120.219033531 5086
109.29805169 5087
98.4075339692 5088
92.4704056699 5089
94.9815834676 5090
103.196999252 5091
112.667215871 5092
118.94965642 5093
117.972996244 5094
110.401698803 5095
100.200532738 5096
91.3959998049 5097
87.9758904004 5098
91.4790137221 5099
99.3700152915 5100
108.731119163 5101
116.648346847 5102
120.769682428 5103
121.151874643 5104
118.499233185 5105
113.515193869 5106
106.914134356 5107
99.559210179 5108
92.4148636864 5109
86.4466088661 5110
82.6086830326 5111
81.1463761135 5112
81.1529023418 5113
81.6165682091 5114
81.5266367675 5115
80.1078765671 5116
77.565449624 5117
74.3600216505 5118
70.9518394421 5119
67.7872752639 5120
65.1496814024 5121
63.214619044 5122
62.1556571445 5123
62.1437083616 5124
63.1905211449 5125
65.0582282164 5126
67.4872567479 5127
70.2182388275 5128
72.9759428999 5129
75.4215790477 5130
77.2005598498 5131
77.958443748 5132
77.4134839066 5133
76.1060784615 5134
75.0964739846 5135
75.45287842 5136
78.2225684811 5137
83.3220823086 5138
88.9765075488 5139
93.27264588 5140
94.2976056992 5141
90.7996350132 5142
84.0141274036 5143
75.7611612435 5144
67.8606040231 5145
61.9551864476 5146
57.8220388201 5147
54.1203577782 5148
49.4941946149 5149
42.6181034004 5150
33.6116043377 5151
24.6334684709 5152
17.9966481314 5153
16.01448456 5154
19.9861953363 5155
27.6436303922 5156
35.9345079875 5157
41.8057748365 5158
42.5546182981 5159
38.8677765055 5160
33.3303922708 5161
28.5492768983 5162
27.0872925442 5163
29.7070461553 5164
34.8003954265 5165
40.5969425482 5166
45.3256414302 5167
47.7722726057 5168
48.5254461982 5169
48.5379428098 5170
48.7630330659 5171
50.0434475413 5172
52.2493491787 5173
54.74720239 5174
56.8988216182 5175
58.0795800656 5176
58.1328008606 5177
57.4697150068 5178
56.5359470878 5179
55.7773201298 5180
55.4535163547 5181
55.2763218873 5182
54.8570689027 5183
53.8067741003 5184
51.8268315742 5185
49.3282920144 5186
47.0567905765 5187
45.7606228346 5188
46.1695224723 5189
48.4763653101 5190
52.2782112479 5191
57.140783099 5192
62.6288007322 5193
67.9826646966 5194
71.5830821454 5195
71.6681920921 5196
66.4741273717 5197
54.7837150423 5198
39.186888774 5199
23.8913393304 5200
13.1155166288 5201
10.9143388877 5202
17.4630955806 5203
29.0491353078 5204
41.7860311326 5205
51.7872862259 5206
56.4772117286 5207
56.3755107543 5208
52.4482420221 5209
45.6626524591 5210
37.0637484596 5211
28.1641749598 5212
20.6542158933 5213
16.2268580756 5214
16.4690094107 5215
20.9146093922 5216
27.2602247079 5217
33.1344826965 5218
36.1695966181 5219
35.1108464121 5220
31.0261610659 5221
25.2752482217 5222
19.2198602722 5223
14.2052920791 5224
11.4809429505 5225
12.2659856332 5226
17.7815947385 5227
29.0540250385 5228
44.054129326 5229
58.3383499958 5230
67.3903328602 5231
66.7205455866 5232
55.1424664951 5233
37.4827303373 5234
19.2126040712 5235
5.81276803298 5236
1.56008877032 5237
5.23262881801 5238
14.0452609881 5239
25.2079048403 5240
36.021434058 5241
45.0018461253 5242
51.502577149 5243
54.8924040234 5244
54.5529161921 5245
50.73959644 5246
45.0858180566 5247
39.348921983 5248
35.2895798336 5249
34.1303966547 5250
35.0135601648 5251
36.5789087422 5252
37.4636483842 5253
36.4333694729 5254
33.6083495353 5255
29.9117811354 5256
26.2791168284 5257
23.6341895045 5258
22.3295812913 5259
21.9442223817 5260
22.0013416513 5261
22.0232901505 5262
21.783810384 5263
21.8696418299 5264
23.0323192744 5265
26.0249481182 5266
31.4557880576 5267
38.7000473885 5268
46.5126352614 5269
53.6411998956 5270
58.8625754956 5271
61.9007539848 5272
63.5686567728 5273
64.7408338029 5274
66.2927265687 5275
68.5525189717 5276
70.3789535837 5277
70.3848846898 5278
67.1801651128 5279
59.7858395849 5280
50.0535229893 5281
41.0242584453 5282
35.7497763092 5283
37.1470594945 5284
45.0904351289 5285
56.5146660029 5286
68.2282502121 5287
77.0389621836 5288
81.0616380071 5289
81.3131496596 5290
79.2018373725 5291
76.1392673023 5292
73.4014363444 5293
71.5032060213 5294
70.6989756035 5295
71.2435107603 5296
73.3677428118 5297
76.9136084896 5298
81.4102617818 5299
86.3770147928 5300
91.3330164597 5301
95.8896560463 5302
99.8262780502 5303
102.939463332 5304
105.025333657 5305
106.035928392 5306
106.613040602 5307
107.590060021 5308
109.802387787 5309
113.993404435 5310
119.784704411 5311
126.057071777 5312
131.675625715 5313
135.518403405 5314
137.280519393 5315
137.864310093 5316
138.271213703 5317
139.505028256 5318
142.651508863 5319
149.077550541 5320
160.214235075 5321
177.496121725 5322
202.131756991 5323
233.256664001 5324
268.900983033 5325
307.079899696 5326
345.82636427 5327
383.898790183 5328
420.923551049 5329
456.577331761 5330
490.535851775 5331
522.407936837 5332
551.619835849 5333
577.565567998 5334
599.637634689 5335
617.310034236 5336
630.628235996 5337
639.879509781 5338
645.352664056 5339
647.327873557 5340
645.888284373 5341
640.928289483 5342
632.334283266 5343
619.997145399 5344
604.57141447 5345
588.357455303 5346
573.874379311 5347
563.647587906 5348
559.729222962 5349
561.654742426 5350
568.131266323 5351
577.862671518 5352
589.585152654 5353
602.553364584 5354
616.414461391 5355
630.824766989 5356
645.444538111 5357
660.319216621 5358
676.141470797 5359
693.667612413 5360
713.655892995 5361
737.006517649 5362
765.178771276 5363
799.774281097 5364
842.398394429 5365
894.430276991 5366
954.879322955 5367
1021.35198447 5368
1091.43146227 5369
1162.71998006 5370
1233.81112763 5371
1304.59348849 5372
1375.0424692 5373
1445.13384722 5374
1515.1846711 5375
1586.53292243 5376
1660.70947082 5377
1739.24871608 5378
1823.26886232 5379
1910.76837986 5380
1998.33360857 5381
2082.53523905 5382
2160.09887665 5383
2231.52842198 5384
2301.1339726 5385
2373.40417218 5386
2452.83187387 5387
2542.52378571 5388
2642.46728656 5389
2752.22337159 5390
2871.35401795 5391
2999.70970982 5392
3138.71758878 5393
3290.33873894 5394
3456.53947516 5395
3639.33040558 5396
3841.32185018 5397
4065.58515728 5398
4315.21146978 5399
4593.29088783 5400
4902.36738065 5401
5244.06089643 5402
5619.90829571 5403
6031.44881852 5404
6480.46526241 5405
6969.69031902 5406
7502.09317728 5407
8080.64667111 5408
8707.33273607 5409
9374.1346349 5410
10067.2773536 5411
10772.8864814 5412
11477.0605775 5413
12166.1456737 5414
12826.8083442 5415
13445.7025924 5416
14009.4571349 5417
14505.5476391 5418
14923.8965558 5419
15254.8395175 5420
15488.6914798 5421
15618.2923179 5422
15653.9940849 5423
15613.5594996 5424
15514.8131618 5425
15375.4824479 5426
15210.5974778 5427
15032.6590922 5428
14854.0996336 5429
14687.346246 5430
14539.4296843 5431
14406.3700497 5432
14282.8363288 5433
14163.4866174 5434
14044.7954965 5435
13932.0188957 5436
13833.0739671 5437
13755.885626 5438
13707.3988199 5439
13681.9779972 5440
13665.3863513 5441
13643.1950079 5442
13601.1138017 5443
13534.1381025 5444
13450.9797635 5445
13361.4747178 5446
13275.4805246 5447
13221.5537728 5448
13290.7254408 5449
13587.2507869 5450
14215.5993223 5451
15262.968302 5452
16673.0170773 5453
18318.765545 5454
20072.4754928 5455
21808.5839039 5456
23464.0250106 5457
25042.3232555 5458
26550.218372 5459
27994.3350051 5460
29344.029817 5461
30481.7625953 5462
31277.4366055 5463
31600.677094 5464
31350.663689 5465
30590.6201488 5466
29440.1713814 5467
28019.2345388 5468
26446.7115599 5469
24823.1537155 5470
23235.1559886 5471
21769.1471712 5472
20511.0068562 5473
19497.665844 5474
18685.9935503 5475
18025.3928034 5476
17465.1567082 5477
16960.4827644 5478
16488.7232067 5479
16032.3349524 5480
15573.741897 5481
15096.8605629 5482
14599.4404013 5483
14086.6305149 5484
13563.6552337 5485
13035.8143252 5486
12510.2737711 5487
11996.3390056 5488
11503.4432283 5489
11041.0272143 5490
10613.3556945 5491
10211.7592534 5492
9825.57058707 5493
9444.10503636 5494
9059.16032905 5495
8677.20804858 5496
8310.06836771 5497
7969.58754593 5498
7666.9444475 5499
7402.43834651 5500
7167.68023618 5501
6954.02485188 5502
6752.84783737 5503
6558.47396126 5504
6370.2345907 5505
6187.94691891 5506
6011.42673412 5507
5840.39780058 5508
5674.23059145 5509
5512.20875185 5510
5353.61732603 5511
5197.7450505 5512
5043.96070878 5513
4891.67162189 5514
4740.28652381 5515
4589.2680382 5516
4439.71764064 5517
4294.6357899 5518
4157.13464616 5519
4030.3249972 5520
3915.56840416 5521
3809.84899143 5522
3709.47299626 5523
3610.7412256 5524
3510.64568082 5525
3410.22462187 5526
3311.97948588 5527
3218.41467938 5528
3131.86487347 5529
3051.95558602 5530
2976.18487325 5531
2901.99074513 5532
2826.82623189 5533
2749.59714206 5534
2671.6017085 5535
2594.36449404 5536
2519.41097091 5537
2447.80589218 5538
2378.90719331 5539
2311.67874633 5540
2245.08331809 5541
2178.14880455 5542
2110.48797376 5543
2042.01886455 5544
1972.66220906 5545
1902.37078304 5546
1831.97620472 5547
1763.27482559 5548
1698.11415 5549
1638.34162728 5550
1584.98784549 5551
1537.17107137 5552
1493.73464486 5553
1453.52029444 5554
1415.38592418 5555
1378.28203084 5556
1341.18989453 5557
1303.08852054 5558
1263.07541435 5559
1221.88220484 5560
1181.42500876 5561
1143.64883575 5562
1110.48008891 5563
1082.65941793 5564
1059.13800928 5565
1038.71799435 5566
1020.19951157 5567
1002.22669789 5568
982.933593953 5569
960.346922478 5570
932.490745016 5571
897.922276247 5572
859.332203256 5573
821.339545361 5574
788.580280754 5575
765.504568151 5576
752.322072978 5577
745.090134989 5578
739.687667052 5579
731.997891702 5580
719.389575121 5581
702.282300081 5582
681.470335873 5583
657.749366555 5584
632.313366457 5585
608.185051045 5586
588.915522131 5587
578.060180075 5588
578.661977258 5589
587.983283885 5590
599.653567506 5591
607.238691552 5592
604.417636706 5593
589.548851349 5594
567.061226215 5595
541.793388686 5596
518.587607089 5597
500.815904523 5598
487.781312007 5599
478.089860374 5600
470.345656973 5601
463.264484997 5602
456.272741046 5603
449.072616312 5604
441.366633846 5605
432.925791043 5606
424.656038766 5607
418.395727923 5608
416.012869244 5609
419.347857118 5610
427.993126366 5611
437.746587345 5612
444.036824762 5613
442.287253999 5614
429.729007603 5615
410.249444305 5616
389.269462907 5617
372.2158508 5618
363.824842476 5619
362.86970626 5620
365.088655333 5621
366.191403825 5622
362.038128704 5623
352.366021199 5624
340.977596289 5625
331.871469079 5626
329.038739169 5627
334.323271029 5628
344.899599734 5629
357.327004883 5630
368.161087858 5631
374.591563349 5632
376.873094798 5633
376.18218322 5634
373.696641109 5635
370.490121896 5636
366.41348978 5637
360.529328112 5638
351.886094422 5639
339.574930147 5640
324.405312364 5641
309.440829974 5642
297.900597046 5643
293.004366263 5644
296.267550781 5645
304.512325119 5646
313.757981529 5647
320.020038707 5648
319.999817293 5649
314.656638288 5650
306.577149836 5651
298.353690333 5652
292.430792031 5653
288.891847166 5654
285.938801643 5655
281.719844854 5656
274.403534413 5657
263.638621703 5658
251.467674951 5659
240.152911966 5660
231.958523056 5661
228.732625537 5662
230.886764024 5663
238.523539313 5664
251.745561877 5665
270.212569891 5666
290.113841423 5667
306.000339256 5668
312.408777306 5669
304.190075629 5670
283.003538986 5671
257.049934754 5672
234.800459685 5673
224.6921796 5674
230.120897651 5675
244.629233296 5676
260.615140325 5677
270.470480566 5678
268.696614976 5679
258.729133963 5680
246.36664314 5681
237.412358047 5682
237.090564215 5683
244.931435763 5684
257.245659299 5685
270.304601129 5686
280.442453198 5687
285.909671867 5688
287.13342709 5689
284.659096459 5690
279.032602968 5691
270.841771799 5692
260.771248862 5693
249.519793112 5694
237.786834146 5695
226.361680559 5696
216.488121461 5697
209.554480263 5698
206.950029164 5699
209.819112541 5700
216.348197325 5701
222.765218795 5702
225.260653203 5703
220.10449934 5704
206.877038296 5705
189.530469063 5706
172.319043069 5707
159.497417942 5708
153.753540225 5709
153.51880874 5710
156.508370509 5711
160.435760302 5712
163.220854427 5713
164.01791161 5714
162.435423651 5715
158.082361918 5716
150.674569621 5717
141.485167047 5718
132.964946395 5719
127.595275317 5720
127.819356283 5721
133.894894563 5722
142.799184508 5723
151.237768613 5724
155.914595983 5725
154.645039365 5726
148.70287507 5727
140.032692952 5728
130.580274066 5729
122.209217782 5730
116.212673841 5731
113.645133831 5732
115.56090265 5733
122.892637482 5734
134.458270715 5735
147.286503549 5736
158.347882574 5737
164.63890417 5738
165.222235205 5739
162.621915506 5740
159.693474082 5741
159.294102718 5742
163.387656575 5743
170.815689074 5744
179.738138522 5745
188.313802263 5746
194.911295093 5747
199.522489538 5748
202.893908278 5749
205.776596641 5750
208.899598306 5751
212.537081363 5752
216.541178304 5753
220.747962145 5754
225.029824618 5755
232.853859627 5756
254.270938086 5757
300.040944107 5758
380.930193762 5759
505.934995173 5760
677.252560605 5761
895.451764014 5762
1161.10184324 5763
1473.14678868 5764
1816.77163174 5765
2170.22943139 5766
2511.70890804 5767
2819.82832439 5768
3083.29300013 5769
3300.85463366 5770
3471.69707268 5771
3594.98151081 5772
3667.13114994 5773
3679.20425668 5774
3621.63236867 5775
3484.84180829 5776
3268.53000813 5777
3010.44859816 5778
2758.12274034 5779
2559.10585005 5780
2456.60529574 5781
2454.08991224 5782
2533.80718195 5783
2677.79560522 5784
2868.16454618 5785
3089.03146867 5786
3326.61489002 5787
3567.22599344 5788
3797.18811006 5789
4005.83310083 5790
4188.70429889 5791
4342.10761201 5792
4462.34730893 5793
4545.09564342 5794
4583.30423087 5795
4569.19040018 5796
4494.96889402 5797
4355.31217305 5798
4168.35690686 5799
3965.24560908 5800
3777.27698154 5801
3634.89053064 5802
3545.43181289 5803
3491.36363838 5804
3453.90607802 5805
3414.31486588 5806
3361.38204665 5807
3299.8528652 5808
3236.50151801 5809
3178.10796535 5810
3129.72520299 5811
3088.81412062 5812
3050.74895405 5813
3010.90143576 5814
2965.35270978 5815
2917.09967859 5816
2873.03067739 5817
2840.08282267 5818
2825.00682114 5819
2829.48568932 5820
2849.67830968 5821
2881.46175097 5822
2920.7106453 5823
2963.29424383 5824
3005.07075264 5825
3041.89610622 5826
3069.62201814 5827
3085.64687713 5828
3094.16511653 5829
3101.2408685 5830
3112.94154456 5831
3134.49518589 5832
3163.03587636 5833
3191.17820311 5834
3211.48261122 5835
3216.79436176 5836
3207.58338244 5837
3192.51999267 5838
3180.69055903 5839
3181.14869825 5840
3197.62254928 5841
3222.72962594 5842
3247.69360261 5843
3263.73360228 5844
3264.0737934 5845
3250.55018831 5846
3227.30737126 5847
3198.49150004 5848
3168.1038052 5849
3138.77566942 5850
3112.39405607 5851
3090.83851932 5852
3075.89199831 5853
3066.87825398 5854
3060.55802199 5855
3053.56788993 5856
3042.5664954 5857
3027.2774837 5858
3013.58488961 5859
3008.11439228 5860
3017.49474896 5861
3048.20179628 5862
3106.07334505 5863
3196.78716701 5864
3326.02524678 5865
3498.14230147 5866
3705.83058914 5867
3935.73758453 5868
4174.45096617 5869
4408.75914451 5870
4630.19950353 5871
4835.00020487 5872
5019.58693331 5873
5180.34780962 5874
5309.764501 5875
5392.94472646 5876
5414.167246 5877
5357.70076467 5878
5216.11363435 5879
5013.48416295 5880
4781.37918038 5881
4551.3872423 5882
4351.80163978 5883
4184.31623242 5884
4037.81925688 5885
3901.10951904 5886
3763.34579488 5887
3620.96896671 5888
3477.11248802 5889
3335.15968575 5890
3198.50054539 5891
3070.74926001 5892
2955.9132896 5893
2858.0414472 5894
2781.18587659 5895
2726.86457251 5896
2687.82927221 5897
2654.93101088 5898
2619.01679548 5899
2572.29369191 5900
2516.81049073 5901
2458.92366189 5902
2405.01264548 5903
2361.24436127 5904
2330.06848846 5905
2310.82158482 5906
2302.74229776 5907
2305.0613203 5908
2316.45530984 5909
2334.73167845 5910
2357.62101765 5911
2382.85171031 5912
2408.80758076 5913
2435.88540892 5914
2464.86801268 5915
2496.5402865 5916
2532.27207758 5917
2577.13847742 5918
2637.65808474 5919
2720.3579228 5920
2831.19342206 5921
2967.86553397 5922
3121.91071932 5923
3284.71000637 5924
3447.7166532 5925
3605.94533887 5926
3759.36667625 5927
3908.3158256 5928
4053.12378377 5929
4192.19964893 5930
4318.81635762 5931
4425.39223137 5932
4504.34034002 5933
4549.05949946 5934
4558.31912308 5935
4532.70084486 5936
4472.78910369 5937
4379.69737087 5938
4260.75945959 5939
4127.35444102 5940
3990.93960894 5941
3862.73215084 5942
3745.60835042 5943
3632.36079079 5944
3515.16906174 5945
3386.2322134 5946
3243.0651065 5947
3095.31811647 5948
2954.33327904 5949
2831.46359679 5950
2735.22351507 5951
2661.17934236 5952
2601.20955074 5953
2547.18594252 5954
2491.62533532 5955
2433.26321733 5956
2374.28259643 5957
2316.90587354 5958
2263.30806477 5959
2214.48541635 5960
2170.21728853 5961
2130.22734642 5962
2094.23577919 5963
2061.50156634 5964
2030.40680631 5965
1999.23140966 5966
1966.25482876 5967
1930.52443647 5968
1893.9578298 5969
1859.14262359 5970
1828.66978966 5971
1804.79424223 5972
1787.19884497 5973
1774.38309263 5974
1764.83797313 5975
1757.23724286 5976
1753.51498208 5977
1758.39974892 5978
1776.71616718 5979
1813.23277911 5980
1868.88927057 5981
1938.59279204 5982
2016.71587657 5983
2097.62594846 5984
2177.25849225 5985
2256.27286409 5986
2336.20959745 5987
2418.6129446 5988
2504.37172819 5989
2590.44861454 5990
2672.34341319 5991
2745.5491031 5992
2805.89647548 5993
2853.66392744 5994
2892.24246887 5995
2925.0913684 5996
2955.55872036 5997
2982.75618105 5998
3000.3916482 5999
3001.81616578 6000
2980.38873868 6001
2934.02623069 6002
2871.4745551 6003
2803.05828814 6004
2739.11391095 6005
2687.58613286 6006
2645.23964103 6007
2605.58549817 6008
2562.12710783 6009
2509.01419352 6010
2446.65770399 6011
2378.95235894 6012
2309.83512557 6013
2243.13310984 6014
2179.97426023 6015
2118.7463072 6016
2057.71165532 6017
1995.14488325 6018
1930.67099479 6019
1866.4210777 6020
1804.79935415 6021
1748.2153769 6022
1698.06702882 6023
1652.17722911 6024
1607.57549266 6025
1561.28769017 6026
1511.00407512 6027
1459.10439608 6028
1409.9844202 6029
1368.05304797 6030
1337.46227137 6031
1318.28634228 6032
1307.37547518 6033
1301.48809623 6034
1297.40808545 6035
1293.34997676 6036
1289.56910231 6037
1286.4760714 6038
1284.48242645 6039
1283.75590853 6040
1283.82079002 6041
1284.09575664 6042
1283.99846768 6043
1283.23425841 6044
1282.99143919 6045
1284.935789 6046
1290.73538258 6047
1301.78981313 6048
1316.63434324 6049
1332.08198333 6050
1344.91748936 6051
1352.06022634 6052
1354.11232453 6053
1355.65478296 6054
1361.47244048 6055
1376.32925044 6056
1401.62188818 6057
1432.15789788 6058
1461.97482198 6059
1485.10217191 6060
1498.01660287 6061
1506.27494319 6062
1517.54072104 6063
1539.49017703 6064
1578.56391745 6065
1632.15068536 6066
1693.62834446 6067
1756.34811356 6068
1814.00017235 6069
1865.81733901 6070
1915.48594561 6071
1966.82246302 6072
2023.60216718 6073
2087.28394333 6074
2156.00449469 6075
2227.64134528 6076
2300.07393008 6077
2373.07945611 6078
2451.41707251 6079
2540.65673054 6080
2646.37693989 6081
2772.64859379 6082
2915.91861289 6083
3070.235785 6084
3229.63646495 6085
3389.28470941 6086
3555.82574275 6087
3742.60755363 6088
3963.07987226 6089
4230.19828008 6090
4544.34305434 6091
4892.85965373 6092
5262.47099927 6093
5640.03658319 6094
6028.15110384 6095
6458.48612183 6096
6965.89796744 6097
7585.29742181 6098
8351.13841558 6099
9296.15459053 6100
10452.7566461 6101
11853.4100156 6102
13524.764678 6103
15454.6289469 6104
17614.9777578 6105
19977.6989654 6106
22512.9287313 6107
25167.0569192 6108
27869.0191172 6109
30547.2349606 6110
33129.831513 6111
35537.9246129 6112
37683.6106373 6113
39478.2575987 6114
40833.203055 6115
41690.9800044 6116
42066.5184263 6117
41984.9891519 6118
41471.5892284 6119
40563.4343492 6120
39349.3369936 6121
37932.3203844 6122
36415.5936303 6123
34897.2638769 6124
33430.9518248 6125
32047.8421683 6126
30779.0026868 6127
29653.9427504 6128
28671.7340594 6129
27804.2119177 6130
27022.2393517 6131
26296.7983855 6132
25609.8103038 6133
24960.3309504 6134
24348.9119699 6135
23776.0985499 6136
23239.6034013 6137
22729.1670255 6138
22233.0989356 6139
21739.7065153 6140
21238.0948713 6141
20721.7682306 6142
20185.6967254 6143
19624.8326994 6144
19035.3116435 6145
18425.8462966 6146
17812.7277849 6147
17212.3703702 6148
16640.6017111 6149
16097.4951315 6150
15566.5869206 6151
15030.5973578 6152
14472.342273 6153
13886.2282271 6154
13287.9616224 6155
12695.5358669 6156
12126.994451 6157
11595.5086595 6158
11097.9784858 6159
10627.9031898 6160
10178.7645409 6161
9744.98380739 6162
9326.91098 6163
8927.20851571 6164
8548.54921765 6165
8193.30930934 6166
7860.02796506 6167
7544.58657433 6168
7242.80857342 6169
6950.60740746 6170
6667.0664318 6171
6395.07015388 6172
6137.72882131 6173
5898.1458809 6174
5677.44863128 6175
5472.62694827 6176
5280.14834573 6177
5096.47442198 6178
4918.83920238 6179
4747.43250437 6180
4583.15185877 6181
4426.89471323 6182
4279.29664993 6183
4139.09301692 6184
4004.18685624 6185
3872.47592955 6186
3742.13218497 6187
3615.52579273 6188
3498.2444732 6189
3395.97270794 6190
3314.23902967 6191
3252.10842071 6192
3200.14754733 6193
3148.32717363 6194
3086.62552761 6195
3010.9547836 6196
2930.89342082 6197
2857.95230261 6198
2803.66145048 6199
2776.53255888 6200
2772.3136656 6201
2783.38991183 6202
2802.1331129 6203
2821.33053008 6204
2837.1675041 6205
2847.44106244 6206
2849.95523826 6207
2842.67375392 6208
2826.27180686 6209
2803.66117782 6210
2777.82435524 6211
2751.74325419 6212
2728.0928823 6213
2709.11461466 6214
2697.02148336 6215
2694.02452234 6216
2700.26164838 6217
2710.79717878 6218
2719.92515408 6219
2721.92847708 6220
2712.95466143 6221
2697.46199603 6222
2682.21954788 6223
2674.01111783 6224
2678.99361475 6225
2698.00297834 6226
2729.22400655 6227
2770.82086695 6228
2820.82373147 6229
2874.99736979 6230
2927.17342052 6231
2971.10598533 6232
3000.64941807 6233
3015.13013526 6234
3021.79921456 6235
3028.54333436 6236
3043.25420148 6237
3069.79253707 6238
3101.87463545 6239
3131.63922247 6240
3151.20702118 6241
3154.99613474 6242
3147.8762932 6243
3137.68982365 6244
3132.29320008 6245
3138.52613199 6246
3154.48988117 6247
3173.87718319 6248
3190.33319752 6249
3197.85464433 6250
3196.80738402 6251
3193.02315494 6252
3192.52320892 6253
3201.23965854 6254
3220.27568141 6255
3243.73324911 6256
3265.15881036 6257
3278.09163426 6258
3279.41492753 6259
3274.32241672 6260
3269.28849678 6261
3270.79805918 6262
3283.56006541 6263
3304.31970364 6264
3327.59700466 6265
3347.90064305 6266
3360.25847972 6267
3364.03254575 6268
3360.71359471 6269
3351.81060549 6270
3338.7863949 6271
3322.27735913 6272
3302.23380387 6273
3278.58272627 6274
3251.2738153 6275
3221.29542568 6276
3191.08057976 6277
3163.17393258 6278
3140.12147808 6279
3123.305541 6280
3111.3412172 6281
3102.44091176 6282
3094.8108026 6283
3087.04242296 6284
3079.34882479 6285
3072.37269641 6286
3066.75573608 6287
3063.06645885 6288
3061.27675479 6289
3061.08538267 6290
3062.18905315 6291
3064.4889313 6292
3071.07466824 6293
3087.53225762 6294
3119.52723941 6295
3172.67010095 6296
3250.01241263 6297
3351.27596419 6298
3475.95758068 6299
3623.54101072 6300
3791.09700458 6301
3970.41197688 6302
4152.55648882 6303
4328.58329605 6304
4491.9983959 6305
4645.76495255 6306
4795.12089793 6307
4945.31394816 6308
5099.47626603 6309
5246.09337587 6310
5367.44912877 6311
5445.77032002 6312
5464.39415261 6313
5421.84940086 6314
5327.50161428 6315
5190.96170849 6316
5021.85357884 6317
4829.51181706 6318
4622.92852274 6319
4411.0927402 6320
4202.98246907 6321
4003.99965819 6322
3812.53177686 6323
3626.15352582 6324
3442.43431139 6325
3260.36287753 6326
3083.7215388 6327
2917.3063782 6328
2765.92436539 6329
2633.30082309 6330
2516.66668031 6331
2410.84218277 6332
2310.63339655 6333
2211.1584304 6334
2111.09591998 6335
2011.35104904 6336
1912.86498445 6337
1816.60697905 6338
1724.17840149 6339
1637.83143661 6340
1559.85144691 6341
1492.49824594 6342
1435.741015 6343
1385.68372234 6344
1338.05214055 6345
1288.56515673 6346
1234.37967087 6347
1176.77317935 6348
1117.7556583 6349
1059.34038169 6350
1003.45296976 6351
951.563207104 6352
905.001119564 6353
865.098662148 6354
833.01127292 6355
808.27644945 6356
789.574458754 6357
775.575381539 6358
764.922945358 6359
755.834995702 6360
746.158328473 6361
733.723456478 6362
716.410161552 6363
694.608593554 6364
672.259321662 6365
653.578247834 6366
642.77873003 6367
641.370009685 6368
644.522633006 6369
646.493162006 6370
641.527182638 6371
625.78341115 6372
603.122697794 6373
579.343371925 6374
560.255047255 6375
550.711050582 6376
548.757535833 6377
549.507168275 6378
548.051602512 6379
539.876564987 6380
525.792593343 6381
510.390544319 6382
498.349768591 6383
494.208439825 6384
498.050734913 6385
504.851892446 6386
509.297462239 6387
506.091711101 6388
492.910950739 6389
472.979553199 6390
450.133351813 6391
428.215571184 6392
410.561468727 6393
398.905478492 6394
394.672756078 6395
399.291250729 6396
413.19924059 6397
431.488773545 6398
447.449742098 6399
454.357676626 6400
446.433485084 6401
427.082534946 6402
404.84286875 6403
388.324369356 6404
385.701603262 6405
396.500442932 6406
412.440474559 6407
424.946901752 6408
425.557713538 6409
412.217922926 6410
392.134859974 6411
373.250840785 6412
363.509466815 6413
367.149656569 6414
379.653418317 6415
395.23296721 6416
408.089684287 6417
413.830321938 6418
413.691182879 6419
410.3140814 6420
406.345590497 6421
404.087147146 6422
403.441316532 6423
403.30122713 6424
402.554220076 6425
400.22201589 6426
397.036005311 6427
394.898722044 6428
395.73875467 6429
401.412311501 6430
411.739393835 6431
424.317988648 6432
436.629850345 6433
446.166522792 6434
451.643409452 6435
453.912222591 6436
454.040390791 6437
453.097199198 6438
451.826444668 6439
450.038260647 6440
447.376808264 6441
443.485412557 6442
438.377337916 6443
433.851521675 6444
432.247161762 6445
435.907888861 6446
446.613283485 6447
461.40387436 6448
474.955849116 6449
481.919058568 6450
477.302940467 6451
461.927711748 6452
441.248320756 6453
420.857703332 6454
406.269441811 6455
399.786389011 6456
399.678877824 6457
403.958763963 6458
410.636512573 6459
418.031002422 6460
425.082577397 6461
430.804037552 6462
434.206471166 6463
434.573104349 6464
432.085256946 6465
427.10904296 6466
420.011265521 6467
411.257850522 6468
401.85880183 6469
393.013106295 6470
385.921765384 6471
381.724162375 6472
380.945019683 6473
383.765379338 6474
390.362881067 6475
400.840714183 6476
413.917458247 6477
427.08804255 6478
437.801421461 6479
443.543001422 6480
443.657798995 6481
440.065824077 6482
434.879329638 6483
430.212513539 6484
427.837084516 6485
428.769063422 6486
433.925888863 6487
444.226589559 6488
460.095898034 6489
480.175044162 6490
502.702098225 6491
525.911747591 6492
548.543618193 6493
572.386676947 6494
600.36619191 6495
635.414402853 6496
680.288474894 6497
735.866294598 6498
801.905576046 6499
878.148991776 6500
964.1718199 6501
1056.1751023 6502
1147.2179474 6503
1230.22758455 6504
1298.18313729 6505
1347.22796739 6506
1378.08777148 6507
1391.84688646 6508
1389.5961738 6509
1373.34724923 6510
1347.21813843 6511
1315.62734713 6512
1283.00007865 6513
1252.58065637 6514
1223.19146038 6515
1192.62555248 6516
1158.67161359 6517
1119.74588699 6518
1078.15286462 6519
1037.68251021 6520
1002.13380512 6521
975.038272616 6522
957.007951987 6523
946.889166349 6524
943.501295732 6525
945.623741652 6526
951.255073446 6527
957.660459898 6528
962.071897468 6529
961.745628665 6530
955.35778452 6531
943.636684292 6532
927.472236176 6533
907.756069111 6534
885.59630905 6535
862.585716768 6536
840.386909765 6537
820.66505715 6538
804.385124143 6539
789.957421263 6540
775.207965928 6541
757.958957342 6542
736.291043179 6543
709.845412861 6544
678.841299611 6545
643.498755505 6546
604.347262012 6547
565.059180968 6548
531.147480888 6549
508.157167949 6550
501.29283397 6551
509.081947588 6552
524.049205193 6553
538.493586676 6554
544.809541063 6555
540.186943528 6556
528.405579354 6557
513.729300823 6558
500.421110007 6559
491.385757087 6560
486.635421267 6561
485.812741937 6562
488.559445755 6563
493.627443428 6564
496.765152119 6565
493.080470037 6566
477.67294693 6567
447.6028206 6568
410.689789346 6569
378.426577102 6570
362.329250423 6571
372.266399334 6572
402.902147283 6573
440.742476596 6574
472.192318916 6575
484.371887269 6576
476.547552455 6577
457.955010252 6578
438.139949831 6579
426.47065115 6580
425.501432932 6581
429.312385421 6582
431.444609393 6583
425.468441634 6584
409.451924038 6585
390.003307987 6586
374.69493179 6587
371.109649724 6588
382.983391483 6589
402.611297762 6590
420.162578109 6591
425.789030329 6592
412.452944811 6593
386.529656651 6594
358.38649371 6595
338.409846814 6596
335.292592988 6597
344.525259342 6598
355.437604413 6599
357.306453744 6600
340.367740942 6601
307.902219483 6602
272.502649526 6603
246.983973238 6604
243.763803741 6605
264.305432037 6606
298.310983311 6607
334.886830609 6608
363.199985416 6609
377.770013165 6610
381.777581265 6611
379.196126622 6612
374.006586485 6613
370.178043073 6614
371.639244596 6615
382.319208934 6616
406.153846461 6617
445.51584833 6618
496.655381989 6619
554.321357026 6620
613.253296592 6621
668.639139319 6622
718.503288001 6623
761.958027274 6624
798.1163642 6625
826.119790055 6626
845.418297741 6627
855.643440659 6628
856.428430403 6629
847.503866 6630
830.426224276 6631
808.363264559 6632
784.543203263 6633
762.142623898 6634
742.050764179 6635
722.145355552 6636
700.095885099 6637
673.580158538 6638
641.959319282 6639
607.929762907 6640
574.584607981 6641
545.021604215 6642
521.457166017 6643
503.420453247 6644
489.931598603 6645
480.009075387 6646
472.717169485 6647
467.344391065 6648
463.245335586 6649
459.773782641 6650
456.306048272 6651
452.400586962 6652
447.69876986 6653
441.841847803 6654
434.428940489 6655
424.528400654 6656
410.841863646 6657
392.061500572 6658
367.032096032 6659
338.301727759 6660
312.205130921 6661
295.259325974 6662
293.882245456 6663
308.295958387 6664
329.360998632 6665
347.14501145 6666
351.721612485 6667
338.668116275 6668
316.025405379 6669
293.560723207 6670
281.059315008 6671
284.558509754 6672
297.046715121 6673
308.669842719 6674
309.555267369 6675
292.286502505 6676
262.804050828 6677
231.554764123 6678
209.008741742 6679
204.354015591 6680
215.603151983 6681
235.058428609 6682
254.962321607 6683
267.935095429 6684
272.285153606 6685
270.621352734 6686
265.663511636 6687
260.090744328 6688
255.323250306 6689
251.388157916 6690
248.24032663 6691
245.823071332 6692
243.284625798 6693
238.483195241 6694
229.154796928 6695
213.039063931 6696
190.292447423 6697
166.924623652 6698
149.823773026 6699
145.891279976 6700
159.117424976 6701
182.741411811 6702
207.51611723 6703
224.176160952 6704
225.387478098 6705
214.864218027 6706
200.225899144 6707
189.111306472 6708
188.207304303 6709
195.547680974 6710
204.590470272 6711
208.740063706 6712
201.848248793 6713
184.69770184 6714
163.443701979 6715
144.393500234 6716
133.730240743 6717
133.761385545 6718
142.440838218 6719
157.487513836 6720
176.608080279 6721
196.959591856 6722
214.806316041 6723
226.323578864 6724
227.689079326 6725
218.058736601 6726
203.760232982 6727
192.18891768 6728
190.754607793 6729
203.789668248 6730
224.435361708 6731
243.284835673 6732
250.912269393 6733
240.074113945 6734
215.668796446 6735
186.778757843 6736
162.508436154 6737
150.976428629 6738
151.687845695 6739
159.748621949 6740
170.219860616 6741
178.311958993 6742
181.474049852 6743
178.813874362 6744
169.476613177 6745
152.752650148 6746
131.71067679 6747
113.44191347 6748
105.246336444 6749
114.3127089 6750
140.599176002 6751
173.007188465 6752
199.484478143 6753
207.986413723 6754
193.110118886 6755
164.249342739 6756
132.810236607 6757
110.221394207 6758
103.876032349 6759
107.773924596 6760
113.13742575 6761
111.170907637 6762
95.588535635 6763
72.6385537224 6764
52.4674401541 6765
45.2438006896 6766
59.4169698401 6767
90.2532281563 6768
126.957240942 6769
158.679812735 6770
175.337587547 6771
176.306618603 6772
167.231115241 6773
153.878694663 6774
141.894087263 6775
134.137586544 6776
130.836912746 6777
132.117159971 6778
138.075437351 6779
147.628518077 6780
158.106762734 6781
166.723890627 6782
170.706456596 6783
169.447966258 6784
166.516490103 6785
165.961149176 6786
171.836795972 6787
185.887054752 6788
203.378881954 6789
218.446373406 6790
225.210969804 6791
219.633242715 6792
205.331383024 6793
187.915465273 6794
173.007339752 6795
165.452945846 6796
165.224940542 6797
170.42745104 6798
179.156823292 6799
189.579804912 6800
200.566807853 6801
211.376377951 6802
221.269732691 6803
229.572883909 6804
236.634585463 6805
243.607640927 6806
251.668855494 6807
261.92434026 6808
273.459568332 6809
283.127898507 6810
287.66074163 6811
283.825233419 6812
270.946362031 6813
252.334876851 6814
231.652579835 6815
212.564678919 6816
197.764818115 6817
187.784140504 6818
182.864122233 6819
183.246414629 6820
188.271879608 6821
194.386630312 6822
197.449454572 6823
193.310065265 6824
179.224764505 6825
159.119461477 6826
138.894242762 6827
124.462502327 6828
120.9442316 6829
127.824829006 6830
142.17485667 6831
161.049449712 6832
181.473058281 6833
200.203940049 6834
213.835838859 6835
218.952764251 6836
212.381705514 6837
195.308500787 6838
172.630949016 6839
149.375476781 6840
130.521270372 6841
119.214984609 6842
116.433570284 6843
123.03089657 6844
139.82561109 6845
164.984830433 6846
192.292013146 6847
215.107223137 6848
226.790532206 6849
224.533402049 6850
214.483950831 6851
204.078309947 6852
200.768489997 6853
209.428406317 6854
226.276774276 6855
245.717201237 6856
262.140666989 6857
271.115107389 6858
273.982299779 6859
273.842952391 6860
273.804862852 6861
276.867978858 6862
285.221982453 6863
300.707224833 6864
325.167118894 6865
360.046637068 6866
402.471426165 6867
446.930837254 6868
487.864262697 6869
520.00082946 6870
543.258874653 6871
561.945846019 6872
580.516970944 6873
603.320407302 6874
631.153311736 6875
660.678072094 6876
688.317992104 6877
710.514974785 6878
725.473148316 6879
734.228158994 6880
738.073414143 6881
738.301554206 6882
735.519058937 6883
728.7987098 6884
717.00312198 6885
698.993295786 6886
674.641091007 6887
647.017996354 6888
619.832041954 6889
596.79959069 6890
580.529215109 6891
568.584792689 6892
557.096634698 6893
542.186515807 6894
520.710201187 6895
494.358367028 6896
466.765229077 6897
441.578172416 6898
422.092805507 6899
408.152643827 6900
397.673231566 6901
388.544518167 6902
378.71757181 6903
367.120421113 6904
353.432567746 6905
337.351755598 6906
318.589395463 6907
297.212698281 6908
273.661174706 6909
248.39250279 6910
221.889089188 6911
195.764778006 6912
173.241910972 6913
157.672346764 6914
152.391333355 6915
157.80537538 6916
168.601058346 6917
178.793282411 6918
182.387660954 6919
175.848761955 6920
162.3149048 6921
146.048767601 6922
131.322729909 6923
122.019289439 6924
120.509343105 6925
128.807275368 6926
148.9318807 6927
181.961787757 6928
223.881588817 6929
268.955686214 6930
311.434639352 6931
346.297206867 6932
374.25527339 6933
398.705685711 6934
423.067770908 6935
450.376688298 6936
479.195585773 6937
505.231370235 6938
524.13586119 6939
531.723832794 6940
526.866633362 6941
511.071289988 6942
485.934231337 6943
453.103170007 6944
415.698106685 6945
378.548080165 6946
346.588164864 6947
324.707051358 6948
314.336614058 6949
311.507513432 6950
311.773763888 6951
310.687907107 6952
305.213999951 6953
295.318372387 6954
281.35019642 6955
263.659862128 6956
243.125688434 6957
222.162277609 6958
203.467489721 6959
189.745050822 6960
182.898457663 6961
181.574053337 6962
183.590510592 6963
186.761623812 6964
188.993245559 6965
188.733517389 6966
184.619247922 6967
175.284534961 6968
159.773121463 6969
140.435960821 6970
121.220609858 6971
106.093397817 6972
98.6609029587 6973
98.235109936 6974
101.33965958 6975
104.443899204 6976
104.162796316 6977
99.8523168397 6978
93.2434526492 6979
86.1491439203 6980
80.341791573 6981
76.2684212783 6982
72.8498321804 6983
68.9202928762 6984
63.3325509268 6985
56.142486791 6986
49.2459992259 6987
44.6979769603 6988
44.5494517774 6989
49.6552190789 6990
58.4181315864 6991
68.9379269014 6992
79.310521477 6993
87.7957623274 6994
93.114811753 6995
94.0658084959 6996
89.4444483629 6997
78.8530184384 6998
64.9598235522 6999
51.1651021073 7000
40.8763223989 7001
36.851390594 7002
38.4246797475 7003
43.813502577 7004
51.2307858231 7005
58.8770756355 7006
64.8868757688 7007
67.3633901199 7008
64.4056737121 7009
54.4996961378 7010
40.1386911909 7011
26.1762916959 7012
17.5062770947 7013
18.6566613709 7014
28.4748779173 7015
41.3920684155 7016
51.7122435999 7017
53.9460861695 7018
47.7991905024 7019
38.2860446808 7020
30.6706342129 7021
30.1385983833 7022
38.1956409151 7023
51.424252688 7024
66.0569936683 7025
78.3374372451 7026
86.1291513537 7027
90.1548545673 7028
91.4296193473 7029
90.9704092891 7030
89.7588920629 7031
88.6913884702 7032
88.653559658 7033
90.5330320476 7034
95.3973092146 7035
104.872917276 7036
120.698248324 7037
144.615385963 7038
177.339923525 7039
215.227927719 7040
253.47389902 7041
287.2621468 7042
312.67407871 7043
330.986212269 7044
345.330505172 7045
358.847697264 7046
374.366181749 7047
392.210702529 7048
411.518342977 7049
431.417340676 7050
451.151260061 7051
471.256071286 7052
493.07326022 7053
517.959113291 7054
547.281964495 7055
582.555113454 7056
625.411274083 7057
677.489279679 7058
740.351862287 7059
813.559960076 7060
894.573691472 7061
980.74989273 7062
1069.44778688 7063
1158.38539432 7064
1245.76880592 7065
1329.83545329 7066
1408.81743244 7067
1480.86288324 7068
1543.97251862 7069
1596.12772116 7070
1635.31264088 7071
1660.9182128 7072
1675.58159906 7073
1682.39886256 7074
1684.47347787 7075
1684.64205973 7076
1684.92398884 7077
1687.18572291 7078
1693.29795849 7079
1705.05370595 7080
1723.91617659 7081
1751.2693478 7082
1788.49799807 7083
1836.55862487 7084
1894.0677425 7085
1958.85828054 7086
2028.75865562 7087
2100.97442485 7088
2168.24767615 7089
2221.344601 7090
2251.00235361 7091
2249.0214113 7092
2217.89625529 7093
2166.24582344 7094
2102.77751604 7095
2035.78735847 7096
1967.56441229 7097
1895.98612961 7098
1818.82126921 7099
1733.98150878 7100
1642.31730013 7101
1547.44929262 7102
1453.10990562 7103
1363.03350519 7104
1280.69131426 7105
1209.24045057 7106
1151.82636263 7107
1111.5813045 7108
1090.43548334 7109
1088.48304735 7110
1105.66308289 7111
1141.89990676 7112
1195.2678411 7113
1260.22775898 7114
1330.81060185 7115
1401.03697554 7116
1466.5540857 7117
1527.12725377 7118
1583.16235285 7119
1635.06535845 7120
1682.73324836 7121
1724.38592007 7122
1757.89437846 7123
1781.12649868 7124
1791.8235152 7125
1787.20918756 7126
1764.36053988 7127
1720.34733193 7128
1653.62132807 7129
1570.4698883 7130
1479.94480008 7131
1391.12365688 7132
1312.03311165 7133
1242.71441591 7134
1179.59139384 7135
1119.06210139 7136
1057.80682666 7137
995.421431102 7138
933.189779345 7139
872.41809078 7140
814.351000851 7141
759.338370533 7142
707.073953971 7143
657.237270999 7144
609.55108221 7145
564.634793677 7146
523.93519332 7147
488.933031923 7148
461.020026378 7149
438.775383806 7150
417.529579171 7151
392.421007275 7152
358.670991395 7153
316.344992927 7154
272.543650578 7155
234.93835379 7156
211.173136746 7157
204.20424188 7158
208.408497011 7159
217.234677521 7160
224.118883116 7161
224.01231701 7162
215.390953954 7163
197.223866962 7164
168.478410013 7165
130.33917378 7166
90.5470430324 7167
58.068988064 7168
41.8992314944 7169
47.6946894376 7170
68.3942711264 7171
93.9028775905 7172
114.094459318 7173
120.624345015 7174
113.951398803 7175
97.2198636265 7176
73.5841802153 7177
46.4896674596 7178
21.1581372222 7179
3.51273800919 7180
0.0 7181
13.7692008927 7182
40.2921984532 7183
67.7750656325 7184
84.852287242 7185
81.2889809118 7186
59.4998884098 7187
29.6796751373 7188
2.17038756386 7189
0.0 7190
0.0 7191
0.0 7192
2.21989024376 7193
11.215553812 7194
16.5055666673 7195
18.335920799 7196
17.0520893464 7197
13.0122127337 7198
6.92803044272 7199
0.0 7200
0.0 7201
0.0 7202
0.0 7203
0.0 7204
0.0 7205
0.0 7206
0.0 7207
0.0 7208
0.0 7209
0.0 7210
0.0 7211
0.0 7212
0.0 7213
0.0 7214
0.0 7215
0.0 7216
0.875463967874 7217
8.557384713 7218
10.8684529752 7219
8.80896363371 7220
3.92971104575 7221
0.0 7222
0.0 7223
0.0 7224
0.0 7225
0.0 7226
0.112587077152 7227
11.2910687801 7228
19.3810809459 7229
19.3624700128 7230
7.21576992974 7231
0.0 7232
0.0 7233
0.0 7234
0.0 7235
0.0 7236
0.0 7237
0.0 7238
0.0 7239
0.0 7240
0.0 7241
0.0 7242
0.0 7243
0.0 7244
0.0 7245
0.0 7246
0.0 7247
0.0 7248
25.1373702916 7249
60.1504289904 7250
66.7414394328 7251
42.11411386 7252
0.212636819172 7253
0.0 7254
0.0 7255
0.0 7256
0.0 7257
0.0 7258
0.0 7259
0.0 7260
0.0 7261
9.16202352962 7262
17.5404666183 7263
16.8123080084 7264
8.34771472922 7265
0.0 7266
0.0 7267
0.0 7268
0.0 7269
0.0 7270
0.0 7271
0.0 7272
0.0 7273
0.0 7274
0.0 7275
0.0 7276
0.0 7277
0.0 7278
0.0 7279
0.0 7280
0.0 7281
0.0 7282
18.3494136991 7283
19.6703952697 7284
3.71652235535 7285
0.0 7286
0.0 7287
0.0 7288
0.0 7289
0.0 7290
0.0 7291
0.0 7292
0.0 7293
0.0 7294
0.0 7295
0.0 7296
0.0 7297
0.0 7298
0.0 7299
