0.0 3800
0.0 3801
0.0 3802
0.0 3803
0.0 3804
0.0 3805
0.0 3806
0.0 3807
0.0 3808
0.0 3809
0.0 3810
0.0 3811
0.0 3812
0.0 3813
0.0 3814
0.0 3815
0.0 3816
0.0 3817
0.0 3818
0.0 3819
0.0 3820
0.0 3821
0.0 3822
0.0 3823
0.0 3824
0.0 3825
0.0 3826
0.0 3827
0.0 3828
0.0 3829
0.0 3830
0.0 3831
0.0 3832
0.0 3833
0.0 3834
0.0 3835
0.0 3836
0.0 3837
0.0 3838
0.0 3839
0.0 3840
0.0 3841
0.0 3842
0.0 3843
0.0 3844
0.0 3845
0.0 3846
28.5999953244 3847
88.7996738953 3848
144.902720433 3849
192.108256322 3850
224.515590413 3851
235.857924204 3852
219.905879935 3853
170.782138137 3854
93.4877287146 3855
6.32822640474 3856
0.0 3857
0.0 3858
0.0 3859
0.0 3860
0.0 3861
0.0 3862
0.0 3863
0.0 3864
0.0 3865
0.0 3866
0.0 3867
0.0 3868
0.0 3869
0.0 3870
0.0 3871
0.0 3872
0.0 3873
0.0 3874
0.0 3875
0.0 3876
0.0 3877
0.0 3878
43.5054243668 3879
81.2180321765 3880
97.8284242397 3881
94.5726002955 3882
79.1043589045 3883
59.1333132594 3884
42.3021473501 3885
33.0716632114 3886
29.1397516424 3887
27.3459598501 3888
24.5502893978 3889
17.8970954427 3890
6.79797942347 3891
0.0 3892
0.0 3893
0.0 3894
0.0 3895
0.0 3896
0.0 3897
0.0 3898
0.0 3899
0.0 3900
0.0 3901
0.0 3902
0.0 3903
0.0 3904
0.0 3905
23.7600181711 3906
42.8446191587 3907
48.28083291 3908
42.8119818929 3909
31.1580775719 3910
18.0086421761 3911
7.84590847639 3912
0.661255524002 3913
0.0 3914
0.0 3915
0.0 3916
0.0 3917
0.0 3918
0.0 3919
0.0 3920
0.0 3921
0.0 3922
0.0 3923
0.0 3924
0.0 3925
0.0 3926
0.0 3927
0.0 3928
0.0 3929
0.0 3930
0.0 3931
0.0 3932
0.0 3933
0.0 3934
0.0 3935
0.0 3936
0.0 3937
0.0 3938
0.0 3939
0.0 3940
0.0 3941
0.0 3942
34.2163608451 3943
51.1608418196 3944
37.5712901615 3945
1.39325704736 3946
0.0 3947
0.0 3948
0.0 3949
0.0 3950
0.0 3951
0.0 3952
0.0 3953
0.0 3954
62.0879124786 3955
88.8268294591 3956
55.2239598315 3957
0.0 3958
0.0 3959
0.0 3960
0.0 3961
0.0 3962
0.0 3963
0.0 3964
0.0 3965
0.0 3966
0.0 3967
0.0 3968
0.0 3969
0.0 3970
0.0 3971
0.0 3972
0.0 3973
0.0 3974
0.0 3975
0.0 3976
0.0 3977
0.0 3978
0.0 3979
0.0 3980
0.0 3981
0.0 3982
0.0 3983
0.0 3984
0.0 3985
0.0 3986
1.75495841884 3987
0.0 3988
0.0 3989
0.0 3990
0.0 3991
0.0 3992
0.0 3993
0.0 3994
0.0 3995
0.0 3996
0.0 3997
0.0 3998
19.6942730086 3999
50.9895576449 4000
52.0681410117 4001
24.418579151 4002
0.0 4003
0.0 4004
0.0 4005
0.0 4006
0.0 4007
20.9132366094 4008
60.9754244855 4009
85.3290116362 4010
93.3668447303 4011
93.2255176485 4012
93.2284585883 4013
101.649711117 4014
123.76027058 4015
157.265539154 4016
198.700348545 4017
244.61706128 4018
291.463474787 4019
334.487289058 4020
368.259221494 4021
387.368012321 4022
386.495825661 4023
367.362638 4024
344.712972888 4025
334.639490403 4026
353.158124941 4027
414.755403683 4028
523.882322166 4029
680.789862527 4030
885.714787587 4031
1139.33730639 4032
1461.67736957 4033
1899.06780698 4034
2499.53188462 4035
3310.87788842 4036
4367.18959641 4037
5637.5255765 4038
7071.64291664 4039
8619.52456945 4040
10231.2859048 4041
11855.0710674 4042
13437.0450431 4043
14923.5103387 4044
16261.0006326 4045
17396.3754322 4046
18277.0459139 4047
18850.7114987 4048
19065.2851336 4049
18873.7871365 4050
18298.2945707 4051
17411.6169262 4052
16287.4405239 4053
14999.140471 4054
13619.9938218 4055
12223.4747884 4056
10882.8311563 4057
9671.01568814 4058
8653.48691813 4059
7829.68531192 4060
7163.86484139 4061
6620.09176396 4062
6162.65501616 4063
5762.2013588 4064
5400.12929851 4065
5058.95362976 4066
4721.25696822 4067
4373.5862135 4068
4026.5320597 4069
3699.76645354 4070
3412.90610523 4071
3185.15116972 4072
3023.64711457 4073
2920.7246428 4074
2867.8298979 4075
2856.44151432 4076
2875.60615612 4077
2903.99630248 4078
2917.60948638 4079
2892.52775821 4080
2806.23683904 4081
2661.21503521 4082
2482.13727348 4083
2294.37044497 4084
2123.18708679 4085
1985.98593614 4086
1877.44143575 4087
1788.14575195 4088
1708.7231166 4089
1630.23292802 4090
1548.39974924 4091
1461.92511254 4092
1369.5627998 4093
1270.09294906 4094
1165.50774866 4095
1064.30271315 4096
975.73493026 4097
909.03262338 4098
871.432522613 4099
855.5627516 4100
847.50712828 4101
833.360710047 4102
799.42906542 4103
740.284885313 4104
662.291066192 4105
572.698115301 4106
478.734651903 4107
388.287162023 4108
312.589695732 4109
263.887306657 4110
254.390601304 4111
295.538775129 4112
381.278710815 4113
487.835527661 4114
590.708012623 4115
665.464905145 4116
695.471979015 4117
689.984132497 4118
663.625068559 4119
630.978023675 4120
605.98939118 4121
594.502039923 4122
596.552090368 4123
612.049065244 4124
640.883984678 4125
678.545569491 4126
710.527670423 4127
720.978542283 4128
694.086812439 4129
617.269777551 4130
504.791248123 4131
384.295223782 4132
283.456089484 4133
229.616192509 4134
233.720204868 4135
281.07709676 4136
354.794129098 4137
438.020165147 4138
515.462717632 4139
580.153934252 4140
627.957217137 4141
654.747802524 4142
656.710527467 4143
638.215707354 4144
612.572094789 4145
593.51294698 4146
594.73982706 4147
624.064686025 4148
668.171424539 4149
709.020972618 4150
728.614703395 4151
710.241323504 4152
655.580155188 4153
580.274851942 4154
500.284831614 4155
431.523779497 4156
386.595631774 4157
370.222296541 4158
385.962724572 4159
437.368795652 4160
526.39750924 4161
640.935703436 4162
761.548324659 4163
868.776933976 4164
943.357667608 4165
976.604818689 4166
976.958854685 4167
954.40891642 4168
918.923429221 4169
880.125205315 4170
845.788277018 4171
823.032250339 4172
818.962124356 4173
840.27219221 4174
882.512241285 4175
928.869616829 4176
961.918476963 4177
964.266911369 4178
925.133860148 4179
857.705105182 4180
780.588868849 4181
712.357648285 4182
670.627087528 4183
659.414160843 4184
672.401729464 4185
703.025541654 4186
744.736025754 4187
791.630208221 4188
839.32456793 4189
883.663060689 4190
920.49730734 4191
946.444473932 4192
964.702239803 4193
981.837500052 4194
1004.43277999 4195
1038.93697586 4196
1084.02239385 4197
1126.06077069 4198
1150.35783582 4199
1142.2454769 4200
1091.45537609 4201
1011.4354175 4202
923.598062743 4203
849.323995413 4204
809.325397894 4205
807.881027597 4206
831.746986228 4207
866.847359039 4208
899.131261076 4209
918.784988347 4210
930.523574296 4211
942.176321881 4212
961.558969112 4213
995.707667814 4214
1041.3003807 4215
1087.59310167 4216
1123.69766057 4217
1138.77025836 4218
1127.28799515 4219
1095.49161131 4220
1051.18983557 4221
1002.17816322 4222
956.353317044 4223
922.504820776 4224
909.837832082 4225
927.544479595 4226
984.545921978 4227
1076.6893396 4228
1180.79755053 4229
1272.22904285 4230
1326.38406756 4231
1325.25639201 4232
1282.84522613 4233
1222.86566059 4234
1168.99497489 4235
1143.99318043 4236
1151.51094676 4237
1176.71853701 4238
1204.05297055 4239
1217.98128053 4240
1209.23960795 4241
1187.65487578 4242
1166.66787783 4243
1159.69659753 4244
1178.60093738 4245
1217.56779023 4246
1259.49753877 4247
1287.13546659 4248
1283.35533127 4249
1243.14245503 4250
1185.00540154 4251
1130.1298369 4252
1099.66510067 4253
1110.7618803 4254
1153.86891719 4255
1208.44745304 4256
1253.95955398 4257
1270.3889872 4258
1255.63714627 4259
1230.26518069 4260
1216.25640629 4261
1235.55577613 4262
1302.07983577 4263
1396.81359174 4264
1492.3045923 4265
1561.1487288 4266
1577.68687679 4267
1544.78239436 4268
1488.90986431 4269
1437.21127512 4270
1416.7507343 4271
1442.06564701 4272
1495.89069952 4273
1556.00675027 4274
1600.23480018 4275
1609.01802958 4276
1586.42520006 4277
1549.15362661 4278
1513.99036565 4279
1497.53739082 4280
1506.01043469 4281
1528.89701922 4282
1554.18502017 4283
1569.88474499 4284
1566.91531554 4285
1551.77600543 4286
1536.17570834 4287
1531.80507185 4288
1549.8696328 4289
1590.08840593 4290
1640.24433368 4291
1687.58605174 4292
1719.38792339 4293
1727.79729223 4294
1720.76125613 4295
1709.41853867 4296
1704.88625896 4297
1717.21915003 4298
1743.7385451 4299
1773.26581296 4300
1794.4885712 4301
1796.16957977 4302
1774.31831132 4303
1739.46194716 4304
1703.84268414 4305
1679.67801858 4306
1676.94239944 4307
1690.36229675 4308
1708.28001091 4309
1719.03990929 4310
1711.2807129 4311
1683.63284585 4312
1647.37290861 4313
1614.56926005 4314
1597.2646576 4315
1603.15084344 4316
1622.35642373 4317
1640.58200778 4318
1643.55893351 4319
1618.28238942 4320
1571.61880122 4321
1526.43950799 4322
1506.02356357 4323
1533.55734013 4324
1618.84276281 4325
1739.22328388 4326
1867.25378259 4327
1975.55066388 4328
2040.16526781 4329
2065.90653792 4330
2072.07832398 4331
2078.05254644 4332
2102.96032444 4333
2155.02575498 4334
2226.12741995 4335
2306.81584847 4336
2387.66363108 4337
2462.47337708 4338
2540.76144834 4339
2636.81605999 4340
2764.89231961 4341
2940.20538867 4342
3198.63187708 4343
3595.50617981 4344
4186.78937228 4345
5028.30789099 4346
6182.4059943 4347
7730.40360068 4348
9756.82457814 4349
12345.970656 4350
15563.5909584 4351
19286.9788238 4352
23283.0963455 4353
27318.0804973 4354
31159.4505823 4355
34640.0553611 4356
37705.2922645 4357
40311.8825616 4358
42416.667541 4359
43967.2668503 4360
44858.0460467 4361
44964.7354919 4362
44163.3942107 4363
42339.1004771 4364
39603.6611114 4365
36311.1059884 4366
32826.4120331 4367
29513.5370903 4368
26650.6029112 4369
24235.5639812 4370
22208.9324153 4371
20511.3813812 4372
19083.976156 4373
17870.7868165 4374
16817.9145668 4375
15871.6462661 4376
14978.5194957 4377
14097.3504429 4378
13210.6390859 4379
12303.6458384 4380
11361.6759964 4381
10375.3392626 4382
9369.2088822 4383
8381.25023331 4384
7449.34879321 4385
6610.62758543 4386
5881.57884384 4387
5254.41471533 4388
4719.97100612 4389
4269.10978319 4390
3892.1233075 4391
3577.15499411 4392
3311.88583648 4393
3084.03415383 4394
2882.18828348 4395
2706.29175402 4396
2564.45149159 4397
2464.92875153 4398
2415.90189425 4399
2416.22689213 4400
2445.10486569 4401
2479.3034055 4402
2495.66611219 4403
2474.758814 4404
2422.93303066 4405
2357.58545807 4406
2296.09823122 4407
2255.45902408 4408
2240.25488919 4409
2239.43856465 4410
2240.99656221 4411
2232.95638401 4412
2207.22556748 4413
2170.78131698 4414
2134.26045419 4415
2108.26273306 4416
2102.40475305 4417
2112.28974505 4418
2122.86665265 4419
2118.86824181 4420
2085.13858894 4421
2018.47688529 4422
1942.18849742 4423
1883.07119063 4424
1867.82516272 4425
1917.77077696 4426
2014.82206457 4427
2123.21765707 4428
2207.24149148 4429
2231.9921952 4430
2189.98311967 4431
2109.64365131 4432
2021.74218119 4433
1956.93102519 4434
1938.11539019 4435
1957.06332655 4436
1997.67679096 4437
2043.91909193 4438
2080.65467026 4439
2105.74020557 4440
2127.18804295 4441
2153.25157715 4442
2192.12236195 4443
2245.07232703 4444
2297.6859132 4445
2333.43300563 4446
2335.84995756 4447
2292.0601468 4448
2215.92447749 4449
2133.47595042 4450
2070.70540618 4451
2052.96606866 4452
2083.9255868 4453
2138.65943067 4454
2190.37908215 4455
2212.40767553 4456
2186.69917539 4457
2130.08654379 4458
2068.21889762 4459
2026.63721029 4460
2028.96008621 4461
2070.99187996 4462
2126.92875627 4463
2170.50312524 4464
2175.62914438 4465
2131.54705724 4466
2061.86774246 4467
1994.80426782 4468
1958.44607418 4469
1975.8212433 4470
2033.1070321 4471
2099.96947049 4472
2146.12881203 4473
2142.10067504 4474
2084.07621381 4475
2001.36758599 4476
1925.36090704 4477
1887.29968423 4478
1909.1624241 4479
1976.69505907 4480
2066.7628833 4481
2156.33696643 4482
2223.33752096 4483
2258.0449773 4484
2260.04316285 4485
2229.14730299 4486
2165.20681884 4487
2074.07656597 4488
1974.57755533 4489
1887.13951888 4490
1832.09415009 4491
1826.12006749 4492
1860.80176445 4493
1917.02866153 4494
1975.74049535 4495
2018.28373126 4496
2036.97787921 4497
2037.5813099 4498
2026.65059565 4499
2010.71039745 4500
1995.54562296 4501
1984.29020498 4502
1979.45479436 4503
1983.53743845 4504
1998.55359424 4505
2020.27432348 4506
2040.0694566 4507
2049.25855411 4508
2039.2548575 4509
2008.34948184 4510
1968.59632449 4511
1933.63770568 4512
1917.04530022 4513
1929.48325714 4514
1963.30373824 4515
2003.6677471 4516
2035.79572256 4517
2045.39516444 4518
2030.27621465 4519
2001.93700438 4520
1972.55763031 4521
1954.25239379 4522
1954.54136075 4523
1965.69837431 4524
1976.85099284 4525
1977.18570047 4526
1957.03840041 4527
1919.49044326 4528
1875.79712502 4529
1837.2891847 4530
1815.16730931 4531
1814.05098739 4532
1826.7225455 4533
1844.75762127 4534
1859.77851464 4535
1865.28251173 4536
1865.20331518 4537
1867.12425951 4538
1878.59022059 4539
1906.68926958 4540
1948.64712121 4541
1991.72052688 4542
2022.79111066 4543
2028.8209787 4544
2003.41870391 4545
1959.57997114 4546
1913.77032172 4547
1882.36045694 4548
1879.82675784 4549
1902.81377694 4550
1937.88142663 4551
1971.55043044 4552
1990.50242231 4553
1986.79093547 4554
1960.92457048 4555
1914.15786271 4556
1847.7386219 4557
1765.30623435 4558
1682.13984703 4559
1616.96654554 4560
1588.40152785 4561
1613.56800794 4562
1683.82183366 4563
1767.88969718 4564
1833.90510286 4565
1850.23845456 4566
1801.91271799 4567
1715.26065943 4568
1622.80372675 4569
1556.86386588 4570
1545.19802835 4571
1580.0484494 4572
1636.57711031 4573
1689.98611529 4574
1715.9870558 4575
1705.60785375 4576
1670.4363864 4577
1623.44406675 4578
1577.52136559 4579
1543.07088467 4580
1520.7578205 4581
1508.81374391 4582
1505.48085227 4583
1509.17885822 4584
1520.71650619 4585
1542.67215056 4586
1577.64963141 4587
1628.20370323 4588
1691.90826154 4589
1756.0671862 4590
1806.78911992 4591
1830.27348915 4592
1815.68362832 4593
1770.87859349 4594
1711.09074893 4595
1651.47268933 4596
1606.73751934 4597
1581.81857793 4598
1570.77633321 4599
1567.13685406 4600
1564.46954838 4601
1559.17644855 4602
1556.66294039 4603
1564.10145855 4604
1588.61593558 4605
1635.82399884 4606
1695.63549429 4607
1748.49919649 4608
1774.86107134 4609
1755.53458808 4610
1688.86109537 4611
1602.248532 4612
1525.68097331 4613
1488.93748907 4614
1513.53008535 4615
1580.10064589 4616
1656.59613533 4617
1711.17861115 4618
1713.72427244 4619
1662.94935252 4620
1583.33311343 4621
1500.10580949 4622
1438.29879554 4623
1413.59263306 4624
1418.51506714 4625
1442.08510777 4626
1473.39800633 4627
1502.31293784 4628
1524.23491543 4629
1537.21697113 4630
1539.34249547 4631
1528.79420485 4632
1507.16541461 4633
1480.49794494 4634
1455.09392688 4635
1437.21027644 4636
1431.37375692 4637
1435.63774232 4638
1446.530544 4639
1460.60523027 4640
1474.68888379 4641
1488.88684811 4642
1505.58638715 4643
1527.20446752 4644
1556.09981483 4645
1589.9305518 4646
1617.41178882 4647
1626.33000579 4648
1604.56172643 4649
1544.33464492 4650
1462.68625031 4651
1385.44245439 4652
1338.25111809 4653
1345.33638672 4654
1402.0436018 4655
1474.89462146 4656
1529.38950219 4657
1531.30527517 4658
1463.76956491 4659
1357.98574024 4660
1253.27080989 4661
1188.6486659 4662
1197.98515706 4663
1271.34353744 4664
1375.92615973 4665
1478.97388955 4666
1548.34081235 4667
1569.94449978 4668
1555.22286551 4669
1517.4775135 4670
1469.91025973 4671
1424.09686794 4672
1385.18608281 4673
1356.64130385 4674
1341.89947483 4675
1343.92629872 4676
1359.28378829 4677
1379.78455869 4678
1397.18814365 4679
1403.35091465 4680
1394.96743509 4681
1378.42235043 4682
1361.21854072 4683
1350.80130607 4684
1352.84329203 4685
1362.4628575 4686
1370.83686933 4687
1369.20275681 4688
1349.24670396 4689
1312.14655484 4690
1268.87871954 4691
1230.79282776 4692
1209.14539524 4693
1210.35869905 4694
1227.10956482 4695
1249.6758687 4696
1268.41104588 4697
1274.67817409 4698
1268.42163722 4699
1254.13764343 4700
1236.33057245 4701
1219.4342616 4702
1206.11054976 4703
1196.50697351 4704
1190.57699983 4705
1188.27425586 4706
1189.62282549 4707
1194.93628795 4708
1204.60032906 4709
1218.99759441 4710
1238.2347063 4711
1258.58866815 4712
1273.5444494 4713
1276.57324049 4714
1261.2395583 4715
1226.48249221 4716
1181.76098233 4717
1137.6913411 4718
1104.80534216 4719
1091.91481995 4720
1098.13866759 4721
1119.09516562 4722
1150.43203923 4723
1187.84794634 4724
1227.45764268 4725
1265.78775049 4726
1299.40924449 4727
1324.92336406 4728
1340.45505574 4729
1348.21693729 4730
1351.090481 4731
1351.93385962 4732
1352.97629819 4733
1351.31469788 4734
1341.50442149 4735
1318.12583347 4736
1276.01196575 4737
1218.66841446 4738
1161.08137645 4739
1118.91620328 4740
1107.71097346 4741
1136.6922335 4742
1191.72264681 4743
1253.29830162 4744
1302.07333228 4745
1320.33795357 4746
1308.72288453 4747
1280.08358389 4748
1247.39911827 4749
1223.47492212 4750
1214.88274607 4751
1217.25373361 4752
1225.13438085 4753
1233.11511741 4754
1236.82424551 4755
1237.06979108 4756
1236.31278654 4757
1236.99518361 4758
1241.4149325 4759
1249.54026708 4760
1259.29624759 4761
1268.55404239 4762
1275.20119878 4763
1276.76353365 4764
1269.89302529 4765
1251.13988917 4766
1217.08294711 4767
1165.8991392 4768
1106.90742954 4769
1054.15529915 4770
1021.59485482 4771
1022.6272779 4772
1057.43575678 4773
1111.12932032 4774
1168.10460689 4775
1212.88769805 4776
1233.92597022 4777
1231.67819376 4778
1208.93295381 4779
1168.4565225 4780
1113.63491821 4781
1054.10726132 4782
1002.98435488 4783
973.310348712 4784
977.823470039 4785
1018.58412241 4786
1082.00460391 4787
1153.34697977 4788
1217.99338578 4789
1263.9930764 4790
1290.10956179 4791
1297.88148157 4792
1288.8352009 4793
1264.8653413 4794
1233.07530766 4795
1204.30396644 4796
1189.38738316 4797
1198.99641802 4798
1235.17477689 4799
1283.76875738 4800
1328.93519088 4801
1354.9595018 4802
1350.50690513 4803
1327.64634387 4804
1306.29669126 4805
1306.22185155 4806
1346.00052786 4807
1423.8131596 4808
1519.31660615 4809
1611.64657993 4810
1680.13230694 4811
1712.15338297 4812
1714.26704238 4813
1695.80695901 4814
1666.03166462 4815
1634.2095852 4816
1610.13617184 4817
1603.7896313 4818
1625.06934364 4819
1683.4046627 4820
1776.5682045 4821
1889.11236511 4822
2004.9878441 4823
2108.27593283 4824
2187.55660436 4825
2244.95509724 4826
2285.15959625 4827
2312.82137238 4828
2333.13180078 4829
2356.65922017 4830
2396.85262919 4831
2467.08455726 4832
2580.3183076 4833
2734.99555011 4834
2909.17237557 4835
3079.53170959 4836
3222.9410352 4837
3323.45223661 4838
3392.52445977 4839
3448.1695845 4840
3508.25885542 4841
3589.3657015 4842
3693.61202689 4843
3813.43639711 4844
3941.15444526 4845
4069.17013124 4846
4192.29371586 4847
4309.44928348 4848
4419.97447584 4849
4523.2135294 4850
4619.59781466 4851
4714.85046202 4852
4816.26698141 4853
4931.08683072 4854
5066.10187676 4855
5221.61862264 4856
5392.67260143 4857
5574.18236964 4858
5761.09907269 4859
5947.16799921 4860
6123.55279034 4861
6281.14958175 4862
6410.92314036 4863
6506.08060922 4864
6573.06211082 4865
6623.19947221 4866
6667.74817382 4867
6717.55193697 4868
6776.09123635 4869
6839.66516903 4870
6904.29814315 4871
6966.04427354 4872
7020.65323245 4873
7063.05067487 4874
7088.06251678 4875
7090.55431697 4876
7066.84964871 4877
7023.92140582 4878
6973.50604821 4879
6927.2765461 4880
6896.46427058 4881
6881.15625563 4882
6868.55092482 4883
6845.20995054 4884
6797.79634957 4885
6719.00146093 4886
6619.86700572 4887
6514.86997898 4888
6418.38367175 4889
6343.17489245 4890
6288.07403065 4891
6244.46045413 4892
6203.70265744 4893
6157.35488032 4894
6102.52209711 4895
6043.84058756 4896
5986.45572382 4897
5935.47576243 4898
5893.45923659 4899
5853.68230444 4900
5807.33535903 4901
5745.67083622 4902
5660.98856093 4903
5556.75596941 4904
5443.42036667 4905
5331.46630196 4906
5231.24681623 4907
5149.18366228 4908
5085.50242187 4909
5039.87999394 4910
5011.99503719 4911
5000.38764176 4912
4998.64357815 4913
4999.03745667 4914
4993.89785108 4915
4975.93391455 4916
4942.47419161 4917
4894.19366474 4918
4831.83720497 4919
4756.17550268 4920
4670.94096737 4921
4585.29604796 4922
4508.9276993 4923
4451.45959641 4924
4419.3457601 4925
4403.20650134 4926
4388.72226781 4927
4361.66293565 4928
4308.85189152 4929
4233.42203689 4930
4151.96021982 4931
4081.35785349 4932
4038.33122514 4933
4028.07789407 4934
4031.83200465 4935
4027.93144874 4936
3994.8477486 4937
3916.02642018 4938
3803.45136283 4939
3679.38031493 4940
3565.94957117 4941
3484.34279587 4942
3438.85861222 4943
3418.10025913 4944
3410.13668504 4945
3403.12121949 4946
3388.90245578 4947
3367.98758414 4948
3342.13070569 4949
3313.07613303 4950
3282.38855877 4951
3250.48587507 4952
3217.31549601 4953
3182.82460085 4954
3147.00630615 4955
3111.01262524 4956
3077.19699817 4957
3047.95626814 4958
3025.66988177 4959
3010.50661851 4960
2996.77944777 4961
2977.86836445 4962
2947.18947239 4963
2899.43183833 4964
2838.68590132 4965
2773.31334859 4966
2711.65283005 4967
2661.80479385 4968
2626.0109123 4969
2599.81379416 4970
2578.40977502 4971
2557.02339957 4972
2532.18412516 4973
2504.22620246 4974
2474.17772298 4975
2443.06148007 4976
2411.66254254 4977
2378.79156808 4978
2342.27186682 4979
2299.92878951 4980
2249.70704921 4981
2193.4266389 4982
2137.73934736 4983
2089.57073591 4984
2055.81133499 4985
2039.92264943 4986
2034.32818509 4987
2029.25538119 4988
2014.97861055 4989
1983.0351029 4990
1936.45764998 4991
1884.54976524 4992
1836.63625999 4993
1801.85338727 4994
1783.09047041 4995
1774.83254397 4996
1770.993891 4997
1765.51667679 4998
1753.70648524 4999
1735.59855259 5000
1712.26444419 5001
1684.77096754 5002
1654.16967651 5003
1621.40437738 5004
1587.35386205 5005
1552.89212224 5006
1518.87501047 5007
1485.43063157 5008
1451.63996408 5009
1416.50612525 5010
1379.03639918 5011
1338.96693844 5012
1298.77111167 5013
1261.556853 5014
1230.4201703 5015
1208.02625406 5016
1192.37927665 5017
1178.59044214 5018
1161.746249 5019
1137.01899134 5020
1103.46418427 5021
1066.03109583 5022
1030.14493191 5023
1001.21123482 5024
982.922169069 5025
972.189411616 5026
964.245980042 5027
954.342166642 5028
938.192735936 5029
916.833339972 5030
894.767574732 5031
876.543413467 5032
866.643213082 5033
866.269232633 5034
871.42191916 5035
877.651705944 5036
880.52354325 5037
876.38354301 5038
864.792695763 5039
846.149341849 5040
820.850326473 5041
789.503862824 5042
755.363490691 5043
723.465978227 5044
698.866862676 5045
686.542238648 5046
686.870840537 5047
692.692923801 5048
696.16733424 5049
689.475815341 5050
667.328158402 5051
635.248387469 5052
601.653227211 5053
574.935982095 5054
562.820863329 5055
564.685382631 5056
574.126025269 5057
584.640010016 5058
589.782546034 5059
586.219821227 5060
575.816196094 5061
560.927195516 5062
543.902053965 5063
526.673949115 5064
509.366864189 5065
491.608905219 5066
473.029029787 5067
453.489958054 5068
435.909244209 5069
425.346519849 5070
426.895380835 5071
445.554701666 5072
479.822995937 5073
517.211219846 5074
544.193472722 5075
547.270826555 5076
517.519451026 5077
466.148195615 5078
409.902780193 5079
365.496323673 5080
348.44056785 5081
358.860068074 5082
386.070586467 5083
419.182763328 5084
447.389602834 5085
464.763345999 5086
473.607120986 5087
477.014418591 5088
478.07327905 5089
479.366737366 5090
481.279801615 5091
483.594935506 5092
486.095091458 5093
488.562516975 5094
490.766517687 5095
492.467606007 5096
493.426376114 5097
493.401055876 5098
491.956518629 5099
488.335284067 5100
481.74998384 5101
471.414370393 5102
456.912832847 5103
439.424253043 5104
420.555026114 5105
401.909858086 5106
385.031514613 5107
370.705353499 5108
359.198842477 5109
350.769511008 5110
345.66600084 5111
343.547804868 5112
343.116680456 5113
342.987452318 5114
341.776369681 5115
338.764973353 5116
336.008485586 5117
336.284319001 5118
342.367722928 5119
356.600804792 5120
376.137359244 5121
394.703146784 5122
405.96698635 5123
403.678321721 5124
386.37066887 5125
360.078497606 5126
331.488381599 5127
307.283617225 5128
292.83541896 5129
288.28985126 5130
292.490346179 5131
304.281273459 5132
322.415565733 5133
344.603570083 5134
367.896206654 5135
389.335095369 5136
405.976744972 5137
415.65318913 5138
417.356389403 5139
410.17314323 5140
393.190215721 5141
366.984421576 5142
337.739984455 5143
312.959350496 5144
300.144504009 5145
305.890400841 5146
327.234838731 5147
355.48866019 5148
381.885236497 5149
397.759551067 5150
399.271844051 5151
389.392134795 5152
371.604279681 5153
349.392409143 5154
326.121205917 5155
304.73393558 5156
288.082016255 5157
279.017664408 5158
279.947909981 5159
288.971402695 5160
301.773904315 5161
314.013027197 5162
321.423018599 5163
322.862757301 5164
321.306005819 5165
320.008417152 5166
322.226551545 5167
329.397541331 5168
337.07004245 5169
339.602222205 5170
331.348807307 5171
307.727236638 5172
273.49090308 5173
238.22957209 5174
211.579798968 5175
202.934675862 5176
213.321671378 5177
233.616349899 5178
254.077417042 5179
264.959602703 5180
260.427008094 5181
246.153530813 5182
229.922379988 5183
219.523300819 5184
221.571169577 5185
233.44299894 5186
248.161559414 5187
258.717975192 5188
258.320465935 5189
246.417597314 5190
229.382940231 5191
213.956352283 5192
206.879247623 5193
211.98522691 5194
225.382036407 5195
241.906490008 5196
256.389897934 5197
264.133497778 5198
263.734796416 5199
255.189417556 5200
238.497819271 5201
213.808510438 5202
184.684609086 5203
158.111336118 5204
141.231467488 5205
141.181085258 5206
160.745411533 5207
192.444555577 5208
227.311916577 5209
256.369086019 5210
271.899250871 5211
273.934518336 5212
265.428543274 5213
249.344081261 5214
228.656326436 5215
206.503331252 5216
186.169537444 5217
170.949162168 5218
164.125652397 5219
166.501543007 5220
173.705283763 5221
180.712785383 5222
182.492195622 5223
175.248063449 5224
161.75062233 5225
146.93583297 5226
135.748817003 5227
132.875103255 5228
138.853806721 5229
150.948773155 5230
166.330521352 5231
182.172700067 5232
196.389655648 5233
208.246687701 5234
217.151106317 5235
222.50912634 5236
223.847420231 5237
221.243395198 5238
214.930907771 5239
205.144200497 5240
192.270270027 5241
178.635790243 5242
167.906963492 5243
163.783043872 5244
169.908160927 5245
186.049936665 5246
205.863406901 5247
222.454920305 5248
228.917843229 5249
220.911298435 5250
204.006846063 5251
186.171958192 5252
175.389393579 5253
178.792422241 5254
194.568216763 5255
215.600699773 5256
234.690851373 5257
244.740068002 5258
243.512394381 5259
235.356964159 5260
225.098384391 5261
217.570658712 5262
216.318451798 5263
220.70608203 5264
229.254499263 5265
240.481698783 5266
252.777661389 5267
263.476325896 5268
269.378181857 5269
267.272879316 5270
254.092892186 5271
231.229176617 5272
205.197732963 5273
182.810074794 5274
170.887293066 5275
173.377720617 5276
186.508207655 5277
205.217709464 5278
224.434313373 5279
239.700455973 5280
250.825566375 5281
259.408372551 5282
267.057002684 5283
275.350180744 5284
285.15829095 5285
296.667432008 5286
310.036374025 5287
325.419143879 5288
341.963587275 5289
356.589410673 5290
365.911048597 5291
366.535420768 5292
356.042138923 5293
337.405665578 5294
315.456216126 5295
295.036717846 5296
280.763022832 5297
273.465875585 5298
270.933539963 5299
270.863638133 5300
270.963146036 5301
270.336344726 5302
270.623153935 5303
273.734401319 5304
281.585461893 5305
295.321064508 5306
312.669970991 5307
330.413252763 5308
345.324467702 5309
354.372069961 5310
356.938593842 5311
353.999732395 5312
346.561545504 5313
335.658391376 5314
323.687082235 5315
315.054187342 5316
314.33769888 5317
326.126305826 5318
352.641645682 5319
387.784260536 5320
423.618674027 5321
452.190370739 5322
466.694082962 5323
470.878895235 5324
474.121175777 5325
485.871777948 5326
515.379670855 5327
564.649357467 5328
627.019143445 5329
695.303533246 5330
762.30243642 5331
822.861491201 5332
877.481205822 5333
927.627963303 5334
974.771656473 5335
1019.74723557 5336
1058.98690575 5337
1087.05643096 5338
1098.5017585 5339
1088.21236178 5340
1058.6385122 5341
1019.47471364 5342
980.728447469 5343
952.410229265 5344
940.544284184 5345
942.546325611 5346
954.707376877 5347
973.309543979 5348
994.899831719 5349
1017.46151096 5350
1039.44553036 5351
1059.30006087 5352
1075.57640272 5353
1088.38829875 5354
1099.0340806 5355
1108.84506555 5356
1119.15695706 5357
1131.44133232 5358
1147.39440391 5359
1168.73778538 5360
1197.19744918 5361
1234.1876079 5362
1279.86850129 5363
1334.08872051 5364
1396.69615524 5365
1467.46075732 5366
1545.35341799 5367
1628.87018989 5368
1716.49845318 5369
1806.74432472 5370
1899.02331438 5371
1993.93790232 5372
2092.17173143 5373
2194.41072111 5374
2301.82057926 5375
2416.99902604 5376
2542.81575496 5377
2682.147117 5378
2836.67935958 5379
2999.19920578 5380
3158.46236951 5381
3303.1770313 5382
3422.58618199 5383
3518.95099538 5384
3607.65002723 5385
3704.67620071 5386
3826.02151577 5387
3979.26315622 5388
4153.06686247 5389
4333.49648825 5390
4506.58566082 5391
4663.03120932 5392
4818.93092026 5393
4998.97814307 5394
5227.93188363 5395
5528.73654479 5396
5896.57719642 5397
6305.31717333 5398
6728.21712272 5399
7138.75666244 5400
7531.5345639 5401
7936.61862632 5402
8387.53510045 5403
8917.88757178 5404
9550.5083459 5405
10265.7770287 5406
11033.6153535 5407
11823.8696036 5408
12610.0372005 5409
13402.5727072 5410
14233.2193374 5411
15134.0485154 5412
16136.1307502 5413
17232.161124 5414
18366.6441671 5415
19480.9029745 5416
20516.1447977 5417
21425.0097597 5418
22192.638998 5419
22809.848577 5420
23267.435935 5421
23561.0712986 5422
23720.0907586 5423
23788.0844224 5424
23808.784413 5425
23824.7526403 5426
23852.9287645 5427
23886.2906072 5428
23916.8849625 5429
23936.7892212 5430
23944.0294963 5431
23948.7973955 5432
23962.7838831 5433
23997.7078364 5434
24061.9307625 5435
24147.5367626 5436
24241.7126591 5437
24331.5982105 5438
24404.9732965 5439
24457.827556 5440
24491.7567477 5441
24508.4765142 5442
24509.6961288 5443
24497.236105 5444
24473.0617658 5445
24439.1593993 5446
24397.518052 5447
24372.9971436 5448
24466.9118373 5449
24796.7479564 5450
25480.22767 5451
26619.5747318 5452
28187.7935009 5453
30094.3199456 5454
32247.9568503 5455
34558.1349411 5456
36955.0211567 5457
39390.9229524 5458
41819.0936806 5459
44192.5611839 5460
46425.5391374 5461
48341.8856028 5462
49752.318209 5463
50467.1487014 5464
50333.4725269 5465
49402.7997978 5466
47796.89001 5467
45637.8103513 5468
43051.9331358 5469
40225.3882898 5470
37389.9365815 5471
34778.9632491 5472
32624.4064795 5473
31027.5696984 5474
29876.0923946 5475
29037.6910429 5476
28379.8034834 5477
27792.6627161 5478
27251.7404296 5479
26752.2523471 5480
26289.4071131 5481
25856.7284511 5482
25432.4679097 5483
24986.703835 5484
24489.3731501 5485
23911.1941762 5486
23247.5060054 5487
22521.8229378 5488
21759.2315426 5489
20984.8524222 5490
20215.9229556 5491
19449.948985 5492
18681.4062793 5493
17904.7658456 5494
17117.7450477 5495
16337.1872624 5496
15586.9183856 5497
14890.8119606 5498
14271.2553875 5499
13726.4877586 5500
13235.4628357 5501
12776.5610912 5502
12328.2934654 5503
11882.4851208 5504
11453.556087 5505
11058.1431504 5506
10712.9109028 5507
10427.6017132 5508
10185.3866227 5509
9963.04909773 5510
9737.3360113 5511
9487.44000474 5512
9215.80170709 5513
8937.55257675 5514
8667.98211738 5515
8422.06741894 5516
8204.52914511 5517
8008.23424466 5518
7825.38042916 5519
7648.15185811 5520
7470.06913576 5521
7288.00864597 5522
7099.35659729 5523
6901.49652423 5524
6693.06707883 5525
6480.02078103 5526
6270.95961115 5527
6074.49741346 5528
5898.77458759 5529
5744.36940821 5530
5605.92118233 5531
5477.90312412 5532
5354.78439372 5533
5231.56849477 5534
5104.14125389 5535
4968.46738373 5536
4820.50237402 5537
4658.816875 5538
4491.61855044 5539
4329.34467097 5540
4182.44994601 5541
4059.97108623 5542
3958.31314728 5543
3867.29742486 5544
3776.67330265 5545
3676.50303651 5546
3565.79191941 5547
3453.35591717 5548
3348.52283113 5549
3260.61308807 5550
3193.16114262 5551
3136.15726597 5552
3077.64341828 5553
3005.64407166 5554
2911.05858181 5555
2800.23408031 5556
2684.67480268 5557
2575.90370035 5558
2484.63394595 5559
2410.30013427 5560
2344.16176952 5561
2277.28305967 5562
2200.84051567 5563
2112.9372926 5564
2022.11935402 5565
1937.80900809 5566
1869.44030792 5567
1822.32355464 5568
1788.15222122 5569
1755.80704173 5570
1714.1534506 5571
1654.07646957 5572
1582.15446088 5573
1512.28461698 5574
1458.42358153 5575
1433.85017929 5576
1436.46472303 5577
1449.10825983 5578
1453.97087795 5579
1433.28589616 5580
1379.20997217 5581
1304.26793976 5582
1223.49749083 5583
1151.95647617 5584
1101.67023733 5585
1070.6618612 5586
1052.92874494 5587
1042.45982903 5588
1033.69275677 5589
1026.16807319 5590
1022.63030005 5591
1025.87737418 5592
1038.59579871 5593
1059.05817066 5594
1079.81139831 5595
1093.01257038 5596
1090.81405917 5597
1069.02249455 5598
1033.54450367 5599
992.022076001 5600
952.105863498 5601
920.484877325 5602
897.739123789 5603
882.073882986 5604
871.687153194 5605
864.804691875 5606
860.142991618 5607
856.821201611 5608
853.969504823 5609
850.718110707 5610
846.293941487 5611
840.086092039 5612
831.499227549 5613
819.937089329 5614
805.293753411 5615
789.265194449 5616
773.963412249 5617
761.502637012 5618
753.643229547 5619
749.094744743 5620
745.013691006 5621
738.541284245 5622
726.924102796 5623
710.120016534 5624
690.929493161 5625
672.290597186 5626
657.139196362 5627
647.502315806 5628
643.428432929 5629
644.706630819 5630
651.125436862 5631
661.837755023 5632
672.937302133 5633
679.594952207 5634
676.97650425 5635
660.734798213 5636
632.218561692 5637
596.449801596 5638
558.516138778 5639
523.470228123 5640
494.772257901 5641
473.792596917 5642
461.76114215 5643
459.907114316 5644
468.169524412 5645
482.936731499 5646
499.988731483 5647
515.101478135 5648
524.803591988 5649
530.295732347 5650
534.564235216 5651
540.601854928 5652
551.111535415 5653
564.194444951 5654
574.284526314 5655
575.709187519 5656
562.880824657 5657
536.262443296 5658
506.101754146 5659
483.545605424 5660
479.750060822 5661
500.995728422 5662
536.755854789 5663
572.879918005 5664
595.205248765 5665
591.50588728 5666
564.805443564 5667
525.322357061 5668
483.325540436 5669
448.82034344 5670
425.994686897 5671
413.448213847 5672
409.553614022 5673
412.678540083 5674
420.747813725 5675
430.82185935 5676
439.859145307 5677
444.815674557 5678
443.834570491 5679
440.083591435 5680
438.060059224 5681
442.264894558 5682
456.582537356 5683
478.845144961 5684
503.462489731 5685
524.801234502 5686
537.325621008 5687
538.47195428 5688
529.052454573 5689
510.062848564 5690
482.504227676 5691
448.570280587 5692
413.224404081 5693
381.825590193 5694
359.736971775 5695
351.233110244 5696
355.052994562 5697
368.183387828 5698
387.608010201 5699
410.21503404 5700
431.766201489 5701
447.27651325 5702
451.744352333 5703
440.318708017 5704
414.356184562 5705
383.411316116 5706
357.606409743 5707
347.062345939 5708
356.652386561 5709
376.997709122 5710
396.318948836 5711
402.828632274 5712
387.396022799 5713
356.725260535 5714
323.355588161 5715
299.843768311 5716
297.888929738 5717
316.598402245 5718
345.560125158 5719
374.12044868 5720
391.707608492 5721
392.631849815 5722
378.532801304 5723
351.654162284 5724
314.242020422 5725
270.422196058 5726
230.15894964 5727
204.552967732 5728
204.711862341 5729
238.987927385 5730
296.821250445 5731
359.719026091 5732
409.149878298 5733
427.589375622 5734
415.127721746 5735
386.756776983 5736
357.946541112 5737
344.062194978 5738
351.943668674 5739
374.147909824 5740
401.865753652 5741
426.282804348 5742
440.417197518 5743
443.696369085 5744
436.9456117 5745
420.99066776 5746
397.539077739 5747
375.086542903 5748
365.287068355 5749
379.818803733 5750
429.474158136 5751
507.045883925 5752
588.618302397 5753
649.629725883 5754
665.711251645 5755
632.924065438 5756
584.759275026 5757
558.72689173 5758
592.359155338 5759
714.936461125 5760
924.058383716 5761
1209.73225169 5762
1561.95963364 5763
1970.03939447 5764
2417.36724094 5765
2884.36134466 5766
3351.40704406 5767
3799.20500289 5768
4215.91654483 5769
4597.13369837 5770
4938.76587253 5771
5236.64317447 5772
5477.04764541 5773
5627.55828724 5774
5653.56727281 5775
5520.44749064 5776
5212.70035609 5777
4793.36490577 5778
4345.64617632 5779
3952.79848357 5780
3691.53636659 5781
3578.72397171 5782
3599.26689808 5783
3737.76254704 5784
3978.61990758 5785
4301.7443878 5786
4682.32659663 5787
5095.32320816 5788
5515.70750908 5789
5923.10184574 5790
6306.72915843 5791
6656.98924136 5792
6964.2770983 5793
7215.72844206 5794
7384.45821745 5795
7439.79863296 5796
7351.06747875 5797
7094.20489103 5798
6708.40067593 5799
6267.90134069 5800
5847.36813375 5801
5519.51480882 5802
5304.64293109 5803
5166.58174598 5804
5066.34284636 5805
4965.01883675 5806
4840.65205315 5807
4707.15880542 5808
4583.02151603 5809
4486.73587798 5810
4432.03800256 5811
4411.73006339 5812
4412.86124523 5813
4422.47347349 5814
4428.58023017 5815
4428.69964746 5816
4425.69629994 5817
4422.49825915 5818
4422.04298638 5819
4427.57422793 5820
4442.66818291 5821
4470.91861049 5822
4515.89603393 5823
4576.86354473 5824
4643.93566657 5825
4706.05512807 5826
4752.15541003 5827
4774.58144958 5828
4780.67794614 5829
4781.91496682 5830
4789.7689161 5831
4814.66843949 5832
4856.92024806 5833
4911.18003531 5834
4972.03793386 5835
5034.10558641 5836
5092.66207712 5837
5143.69375963 5838
5183.22859334 5839
5207.2985594 5840
5214.10039485 5841
5206.33528633 5842
5187.26790838 5843
5160.16623231 5844
5128.60698553 5845
5097.48760897 5846
5072.06238564 5847
5057.58731773 5848
5058.42797707 5849
5070.63992775 5850
5085.75850171 5851
5095.26682251 5852
5090.90699754 5853
5070.92111454 5854
5040.33488157 5855
5004.49107053 5856
4968.72864831 5857
4937.00123828 5858
4910.47830463 5859
4889.99832147 5860
4876.39831784 5861
4872.0082433 5862
4885.24568339 5863
4926.08506785 5864
5004.50803068 5865
5128.6165229 5866
5289.9873484 5867
5471.63282538 5868
5656.4816876 5869
5827.93835496 5870
5980.41034175 5871
6119.17689739 5872
6249.98381222 5873
6378.50267294 5874
6501.78330773 5875
6600.59073961 5876
6653.86863958 5877
6640.54722917 5878
6548.20290898 5879
6397.24574175 5880
6215.88681687 5881
6032.35654716 5882
5871.59595161 5883
5732.0107336 5884
5599.23051149 5885
5458.79332606 5886
5296.98321887 5887
5115.06232099 5888
4928.05852202 5889
4751.52013982 5890
4600.91794424 5891
4484.08928564 5892
4395.57376956 5893
4328.57213614 5894
4276.28105645 5895
4232.68182692 5896
4194.48615164 5897
4158.990453 5898
4123.4935401 5899
4085.72954596 5900
4046.60787102 5901
4008.42576603 5902
3973.48804188 5903
3943.79692035 5904
3916.1419838 5905
3882.94690978 5906
3836.4925686 5907
3769.19858806 5908
3682.32737719 5909
3591.04115782 5910
3511.73256204 5911
3460.80231738 5912
3447.74260925 5913
3460.80231184 5914
3484.15788347 5915
3501.97502722 5916
3501.75080645 5917
3492.09691861 5918
3489.84673153 5919
3511.8655835 5920
3573.82660263 5921
3674.16278333 5922
3798.43121964 5923
3931.86753773 5924
4059.8484742 5925
4174.66024845 5926
4278.20022636 5927
4373.07516903 5928
4461.8912059 5929
4546.30076903 5930
4625.40077601 5931
4697.8639038 5932
4762.36324004 5933
4816.67888753 5934
4853.75285461 5935
4864.8905834 5936
4841.38954569 5937
4775.77874117 5938
4675.14095393 5939
4556.02233349 5940
4435.14380388 5941
4328.86145823 5942
4240.89174052 5943
4159.66952297 5944
4072.7015221 5945
3967.52084825 5946
3839.47630172 5947
3701.75852829 5948
3570.04447379 5949
3460.02618634 5950
3383.60021276 5951
3335.34764576 5952
3304.91838393 5953
3281.95377574 5954
3256.44516235 5955
3221.81096982 5956
3173.36639622 5957
3106.44303133 5958
3016.75226812 5959
2909.33493646 5960
2798.8339926 5961
2700.34593039 5962
2628.89489438 5963
2589.45753527 5964
2567.81582471 5965
2547.57565097 5966
2512.327934 5967
2451.30961028 5968
2374.85437289 5969
2298.22185606 5970
2236.68830476 5971
2203.44150984 5972
2195.66862361 5973
2203.19009038 5974
2215.77597797 5975
2223.6440411 5976
2225.10876244 5977
2225.42575802 5978
2230.08156966 5979
2244.51269398 5980
2270.66386051 5981
2304.97776116 5982
2343.41070698 5983
2381.91542875 5984
2417.830813 5985
2452.67094766 5986
2488.72898732 5987
2528.30281858 5988
2573.17975524 5989
2622.08654331 5990
2672.60984482 5991
2722.33242863 5992
2768.97923945 5993
2812.15263158 5994
2852.76907743 5995
2891.77369081 5996
2930.0493773 5997
2966.16718514 5998
2995.74882206 5999
3014.2206184 6000
3017.01065335 6001
3001.64336708 6002
2970.62907057 6003
2927.20235659 6004
2874.60123645 6005
2815.59709747 6006
2750.76706043 6007
2680.05108225 6008
2603.38945425 6009
2521.10860179 6010
2437.23994149 6011
2357.87784807 6012
2289.14640198 6013
2236.92453865 6014
2201.13893796 6015
2175.673032 6016
2154.13220979 6017
2130.13779863 6018
2099.6311639 6019
2062.86175984 6020
2020.54543875 6021
1973.40156095 6022
1922.76703192 6023
1872.17188764 6024
1825.63390107 6025
1787.17619681 6026
1759.7888274 6027
1739.16701554 6028
1717.87275233 6029
1688.4460956 6030
1644.05496601 6031
1587.77503778 6032
1530.51670092 6033
1483.41780196 6034
1457.42432945 6035
1453.55672516 6036
1458.69346092 6037
1458.61425149 6038
1439.0944586 6039
1393.18282879 6040
1333.17923594 6041
1274.54276789 6042
1232.75328523 6043
1220.12904142 6044
1232.62677569 6045
1260.94461221 6046
1295.76533566 6047
1328.2815005 6048
1355.19048689 6049
1376.49998611 6050
1392.26243184 6051
1402.58066928 6052
1408.89637981 6053
1414.09788913 6054
1421.14921407 6055
1433.00386673 6056
1450.84849592 6057
1472.41139863 6058
1495.01725463 6059
1515.98742745 6060
1533.96142442 6061
1552.46875694 6062
1576.17343042 6063
1609.74787074 6064
1656.9453385 6065
1714.79761854 6066
1777.35690918 6067
1838.65433516 6068
1892.95942346 6069
1938.46748294 6070
1976.52816509 6071
2008.58120112 6072
2036.09218135 6073
2061.65736417 6074
2089.49313035 6075
2123.94643016 6076
2169.37019032 6077
2229.21643436 6078
2304.57453164 6079
2396.1516567 6080
2504.65616805 6081
2630.12290393 6082
2769.19026886 6083
2917.42721108 6084
3070.39316905 6085
3224.12868364 6086
3379.57728487 6087
3540.54713446 6088
3710.88587704 6089
3894.49306716 6090
4096.40864584 6091
4322.85201158 6092
4580.10587118 6093
4874.45660428 6094
5211.42091302 6095
5595.09014996 6096
6029.4066573 6097
6518.31893575 6098
7071.91508897 6099
7721.28991269 6100
8502.0819964 6101
9449.98911301 6102
10595.6789692 6103
11936.1557665 6104
13454.7081173 6105
15134.5609757 6106
16959.2650191 6107
18917.2800966 6108
21000.6668375 6109
23201.5557015 6110
25510.5642067 6111
27860.6439485 6112
30110.2081123 6113
32112.5132582 6114
33720.7771012 6115
34840.7706361 6116
35500.2157504 6117
35744.0890805 6118
35617.4287245 6119
35167.4988438 6120
34450.9213558 6121
33526.9422409 6122
32454.9178974 6123
31293.5543154 6124
30095.3875456 6125
28909.8685106 6126
27786.5095219 6127
26773.5456822 6128
25893.5332874 6129
25146.0526771 6130
24529.9043729 6131
24043.6440315 6132
23671.5490926 6133
23375.5800551 6134
23115.7009317 6135
22851.8187922 6136
22557.1366948 6137
22242.5280917 6138
21925.4685353 6139
21623.4816378 6140
21348.4724172 6141
21082.3599592 6142
20797.1005744 6143
20464.5850989 6144
20059.3995491 6145
19585.082219 6146
19062.6026407 6147
18513.1954406 6148
17957.7278914 6149
17406.5881179 6150
16859.1694851 6151
16314.3381971 6152
15770.9475155 6153
15225.8810342 6154
14672.4495657 6155
14103.5515903 6156
13512.0948913 6157
12897.422475 6158
12280.4579111 6159
11686.6550788 6160
11141.5071885 6161
10666.1840394 6162
10254.3132741 6163
9888.80554916 6164
9552.5174769 6165
9229.07994947 6166
8912.39655537 6167
8603.47631545 6168
8303.47432486 6169
8013.5808309 6170
7736.07442367 6171
7474.54385333 6172
7232.65795227 6173
7014.06338964 6174
6817.83592933 6175
6633.4955285 6176
6449.348859 6177
6253.68176792 6178
6039.57674209 6179
5818.44289495 6180
5606.07789919 6181
5418.30650427 6182
5268.48500649 6183
5152.06265695 6184
5056.65047029 6185
4969.806443 6186
4879.59751866 6187
4782.06504551 6188
4679.3634809 6189
4573.8131102 6190
4467.75728593 6191
4364.48442461 6192
4268.52102406 6193
4184.48309385 6194
4116.98809402 6195
4068.35067736 6196
4035.58151687 6197
4014.9460381 6198
4002.69913804 6199
3994.73740691 6200
3985.45888484 6201
3968.85935487 6202
3938.92476669 6203
3891.39551594 6204
3835.98725719 6205
3789.07623727 6206
3767.11195826 6207
3785.24608183 6208
3836.66017668 6209
3896.4369873 6210
3939.07340486 6211
3939.46755884 6212
3893.27483463 6213
3825.28596656 6214
3762.5151728 6215
3731.99085591 6216
3748.34235682 6217
3795.81512285 6218
3854.06719211 6219
3902.71730815 6220
3925.84156514 6221
3927.42623682 6222
3916.98678114 6223
3904.05951297 6224
3897.4954815 6225
3900.30137925 6226
3912.57339391 6227
3934.38978375 6228
3965.51892426 6229
4000.33022199 6230
4028.58416171 6231
4039.86871986 6232
4024.00031733 6233
3983.02617776 6234
3936.70647929 6235
3906.22625444 6236
3912.78008838 6237
3965.33513496 6238
4042.0891329 6239
4116.44729402 6240
4161.75959665 6241
4158.70699217 6242
4121.35767264 6243
4073.26964932 6244
4038.04567347 6245
4036.23918647 6246
4062.21176516 6247
4097.10817334 6248
4121.93369624 6249
4118.688448 6250
4087.49426264 6251
4044.02039915 6252
4004.47066452 6253
3984.87475186 6254
3991.26454415 6255
4015.18039159 6256
4047.01741163 6257
4077.1540348 6258
4098.42770537 6259
4109.79410458 6260
4111.14485547 6261
4102.36863381 6262
4084.2431557 6263
4061.49494908 6264
4039.9571605 6265
4025.47380283 6266
4022.82814945 6267
4027.9977638 6268
4032.62598382 6269
4028.31070737 6270
4007.1502417 6271
3969.95430119 6272
3924.80407579 6273
3880.01542017 6274
3843.80558535 6275
3819.16875043 6276
3801.81220663 6277
3786.89582802 6278
3769.57406422 6279
3745.99349416 6280
3714.66910474 6281
3674.45913571 6282
3624.2163697 6283
3564.0060895 6284
3498.99322878 6285
3435.69697815 6286
3380.64680789 6287
3339.79891957 6288
3314.59673718 6289
3304.39642256 6290
3308.54152604 6291
3326.20268025 6292
3353.96021123 6293
3386.35413024 6294
3417.86170649 6295
3443.09216842 6296
3462.20138712 6297
3482.57223726 6298
3512.08379787 6299
3558.6170411 6300
3627.35552531 6301
3717.5554793 6302
3827.68470647 6303
3956.20773256 6304
4101.23832341 6305
4259.55357521 6306
4427.60534794 6307
4601.83806015 6308
4777.55281153 6309
4942.21165412 6310
5079.94961735 6311
5174.85842312 6312
5212.13488777 6313
5192.05337655 6314
5125.64440896 6315
5024.1855336 6316
4898.81530755 6317
4755.55118688 6318
4594.3940449 6319
4415.00132318 6320
4217.07073296 6321
4005.29261003 6322
3794.11606533 6323
3599.14970163 6324
3436.03098249 6325
3315.24288536 6326
3229.84428178 6327
3169.2137033 6328
3122.71050611 6329
3079.49457677 6330
3027.65243706 6331
2954.85610108 6332
2848.75265369 6333
2699.18066346 6334
2520.58324018 6335
2342.80686009 6336
2195.99054088 6337
2109.16562832 6338
2083.30631969 6339
2090.53630639 6340
2101.61074465 6341
2087.42431954 6342
2033.67706183 6343
1951.06815704 6344
1852.72178416 6345
1751.78359588 6346
1657.89938674 6347
1570.68835682 6348
1487.99028474 6349
1407.63994713 6350
1328.60319233 6351
1255.49208572 6352
1194.68250844 6353
1152.56242049 6354
1134.20644905 6355
1132.76382874 6356
1135.05840686 6357
1127.83147391 6358
1098.5093968 6359
1047.31962579 6360
985.617086217 6361
925.147690761 6362
877.549334687 6363
848.313969973 6364
834.23989084 6365
831.462184534 6366
836.104236622 6367
843.28806707 6368
845.801209862 6369
836.085614203 6370
806.56881532 6371
753.634517611 6372
689.568131026 6373
630.661652577 6374
593.238478712 6375
590.726199673 6376
615.952737977 6377
652.867181107 6378
685.353256648 6379
698.331907101 6380
690.825596826 6381
671.865115255 6382
650.710033827 6383
636.397533738 6384
630.845002614 6385
627.802581879 6386
620.560557708 6387
602.453155337 6388
572.683880546 6389
541.405992288 6390
519.986159405 6391
519.810257648 6392
546.352308115 6393
586.583227249 6394
623.84841581 6395
641.461960627 6396
626.621758021 6397
587.600985124 6398
539.76477218 6399
498.511908406 6400
477.827328009 6401
477.8624675 6402
491.042070312 6403
509.693163994 6404
526.304618303 6405
536.734280077 6406
539.880377102 6407
534.748186039 6408
520.410120067 6409
499.380322056 6410
479.145446008 6411
467.592941303 6412
472.603830823 6413
496.274510537 6414
527.039755009 6415
551.346078538 6416
555.614680652 6417
531.255371075 6418
489.623379484 6419
447.062680794 6420
419.947486554 6421
422.073850203 6422
449.352442983 6423
490.163863011 6424
532.840916151 6425
566.254683521 6426
586.292249117 6427
593.640717534 6428
589.081354214 6429
573.446802479 6430
548.924806099 6431
519.18011524 6432
487.95889639 6433
459.020004126 6434
436.633199524 6435
425.953336537 6436
432.2324379 6437
460.727246677 6438
511.887260324 6439
572.403052977 6440
626.499942099 6441
658.374040651 6442
656.433019533 6443
629.496558346 6444
592.546980626 6445
560.595416865 6446
546.857046591 6447
549.354825141 6448
558.540589534 6449
564.794412765 6450
559.020699909 6451
540.644831702 6452
515.887915967 6453
491.170311028 6454
472.814823349 6455
463.226512174 6456
459.890137203 6457
459.9743853 6458
460.658180917 6459
461.209923257 6460
465.091103476 6461
476.269468141 6462
498.719242319 6463
533.387251357 6464
571.251419093 6465
601.22877408 6466
612.21629872 6467
596.044038585 6468
560.847963327 6469
520.387100138 6470
488.449996168 6471
477.394787297 6472
485.57806409 6473
503.514616252 6474
521.616535528 6475
530.662310409 6476
528.520466525 6477
519.32245271 6478
507.422347921 6479
497.166043419 6480
492.21577692 6481
495.283596863 6482
509.016432484 6483
536.049649113 6484
575.861500377 6485
621.001984181 6486
663.090106593 6487
693.729943979 6488
707.112601455 6489
706.78060283 6490
698.388123164 6491
687.599120939 6492
679.74168356 6493
678.078179507 6494
685.10547213 6495
703.323462037 6496
734.86353318 6497
777.964780163 6498
828.543993753 6499
882.480221628 6500
935.774554151 6501
987.041324328 6502
1037.32832908 6503
1087.77721112 6504
1139.48669639 6505
1191.27819752 6506
1238.6814406 6507
1276.96129477 6508
1301.38925075 6509
1310.64328902 6510
1311.20930278 6511
1310.67199501 6512
1316.62835789 6513
1332.74393442 6514
1348.0156524 6515
1348.01272559 6516
1318.27830546 6517
1248.36502236 6518
1152.67733354 6519
1055.11314996 6520
979.630587788 6521
947.925442026 6522
957.19145604 6523
989.794752485 6524
1027.86455138 6525
1054.07456271 6526
1062.87944124 6527
1059.78996807 6528
1050.75287439 6529
1041.66703427 6530
1035.5145773 6531
1031.06341612 6532
1026.75157762 6533
1021.01574514 6534
1012.80863754 6535
1002.25004308 6536
989.621307421 6537
975.203845312 6538
958.628149659 6539
937.156085057 6540
907.50594188 6541
866.390252801 6542
812.269602083 6543
754.068716248 6544
704.596279189 6545
676.689189064 6546
681.495332712 6547
712.759271879 6548
754.048725401 6549
788.774680811 6550
801.011238551 6551
787.992745262 6552
758.784898047 6553
722.889633994 6554
689.750244508 6555
665.522532685 6556
651.843107105 6557
650.023475302 6558
661.361653844 6559
684.544293742 6560
712.710918765 6561
738.281680911 6562
753.663580255 6563
753.893997957 6564
742.92756237 6565
726.607058074 6566
710.786007707 6567
700.282134508 6568
694.206026385 6569
689.723766716 6570
683.994908344 6571
674.637245626 6572
663.495455604 6573
654.682121164 6574
652.338403745 6575
660.229765765 6576
675.820223284 6577
691.400911425 6578
699.096981663 6579
691.229699265 6580
667.492591485 6581
636.746133215 6582
608.437918039 6583
591.983016679 6584
591.364772879 6585
600.249431195 6586
611.141150165 6587
616.533034704 6588
611.677696687 6589
600.042665385 6590
586.618454113 6591
576.404518399 6592
572.885700344 6593
572.317845544 6594
568.80544734 6595
556.44219243 6596
530.395557614 6597
494.192989502 6598
455.263786886 6599
421.072543104 6600
398.660097734 6601
389.249514147 6602
389.912462907 6603
397.626299611 6604
409.40638178 6605
423.402128446 6606
438.980420858 6607
455.566958045 6608
472.569230583 6609
488.242045442 6610
498.978304014 6611
500.995047239 6612
490.514892689 6613
467.984809884 6614
444.334750145 6615
432.110123743 6616
443.878659602 6617
487.682243785 6618
553.829804338 6619
628.28433225 6620
696.983620556 6621
747.891169401 6622
781.696316702 6623
803.980065096 6624
820.343603899 6625
835.87936038 6626
850.359658558 6627
860.424347332 6628
862.667195789 6629
853.87174128 6630
834.452237485 6631
808.026902238 6632
778.329755377 6633
749.100684053 6634
724.048502451 6635
706.838665924 6636
701.140281296 6637
710.585765145 6638
733.281166433 6639
756.388591786 6640
765.762469658 6641
747.235470331 6642
694.147031616 6643
622.661117647 6644
553.283017139 6645
506.555754829 6646
497.844960041 6647
517.672499968 6648
549.136604856 6649
575.30362616 6650
581.407006562 6651
569.341626481 6652
548.660952705 6653
528.97616731 6654
519.207815763 6655
519.271321022 6656
522.865423855 6657
523.554525652 6658
515.146380679 6659
497.536094377 6660
476.843413969 6661
459.480102319 6662
451.77712621 6663
454.897071046 6664
462.193120351 6665
466.358516509 6666
460.092710703 6667
440.57158278 6668
415.105954362 6669
392.411777979 6670
381.221091286 6671
386.728207991 6672
401.813047569 6673
416.672257242 6674
421.48403672 6675
409.152577013 6676
387.397229133 6677
368.937005272 6678
366.518919824 6679
390.70695742 6680
433.108834761 6681
475.641519845 6682
500.1110955 6683
489.65634191 6684
447.244904008 6685
390.840216623 6686
338.808698221 6687
309.061799634 6688
305.99242958 6689
319.035449032 6690
336.832482851 6691
348.1006245 6692
348.114245077 6693
342.8078039 6694
339.101608633 6695
343.918375264 6696
360.669827577 6697
384.254949568 6698
408.301335051 6699
426.424300068 6700
433.876685058 6701
431.971549141 6702
423.420425952 6703
410.939268596 6704
397.354394193 6705
386.090322196 6706
380.786950161 6707
385.091678899 6708
401.715846058 6709
424.922301395 6710
444.502538145 6711
450.188545771 6712
432.53141526 6713
394.723428289 6714
349.756499954 6715
310.903196693 6716
291.103670337 6717
293.111155195 6718
308.236575313 6719
327.167158979 6720
340.644856719 6721
344.386909273 6722
342.231958623 6723
338.772946527 6724
338.604376891 6725
343.987623529 6726
351.562444144 6727
357.134482902 6728
356.500847322 6729
347.56709129 6730
335.899470914 6731
328.810290239 6732
333.62622379 6733
355.448722491 6734
387.01659811 6735
416.805894877 6736
433.265804015 6737
426.483227687 6738
400.804393905 6739
367.861595635 6740
339.368380607 6741
326.218855197 6742
327.435778928 6743
333.236645765 6744
333.612624104 6745
318.898547774 6746
288.770209461 6747
252.849107811 6748
221.257541863 6749
203.999918961 6750
203.148826071 6751
208.645629385 6752
209.389220478 6753
194.296744831 6754
160.719744796 6755
124.789440077 6756
105.198651777 6757
120.676535219 6758
180.816677499 6759
264.925634054 6760
346.017650652 6761
397.051604378 6762
397.41298435 6763
358.619363962 6764
302.175311427 6765
249.6326231 6766
220.02844916 6767
213.025278679 6768
219.384586661 6769
229.802491719 6770
235.647735052 6771
236.593093123 6772
237.813987274 6773
244.594716254 6774
261.915979422 6775
288.24441371 6776
315.887011214 6777
336.894084181 6778
343.442616597 6779
333.69136805 6780
313.842234261 6781
290.674420663 6782
270.963379695 6783
259.395012717 6784
256.622230436 6785
262.840659175 6786
278.245050474 6787
301.860766131 6788
329.443815536 6789
356.175168531 6790
377.225235415 6791
388.536002643 6792
389.276720694 6793
379.452675165 6794
359.068832323 6795
328.664819802 6796
292.093354199 6797
254.482477034 6798
220.973791797 6799
196.30597322 6800
181.300018337 6801
174.608740522 6802
174.859429274 6803
180.793232684 6804
192.948458587 6805
213.276410318 6806
243.770436064 6807
286.209169515 6808
336.328852972 6809
383.190321837 6810
415.487124107 6811
422.010060647 6812
398.847992597 6813
353.46303907 6814
294.31552868 6815
229.889020895 6816
169.616793741 6817
125.015829496 6818
107.904859064 6819
130.125771351 6820
195.854968557 6821
284.584187034 6822
370.81462984 6823
428.991861784 6824
439.737203834 6825
413.014483438 6826
367.461959376 6827
321.760166636 6828
292.334083508 6829
279.565278862 6830
276.9619348 6831
277.992329853 6832
276.481814812 6833
270.217873641 6834
259.395311915 6835
244.243111674 6836
225.174516369 6837
205.806014623 6838
192.482922026 6839
191.650961383 6840
209.487736772 6841
243.255175901 6842
279.667032093 6843
304.80078222 6844
304.852902003 6845
276.682510473 6846
234.793024765 6847
195.371286023 6848
174.612692102 6849
181.6973101 6850
209.391573651 6851
248.109663274 6852
288.244773987 6853
322.223455391 6854
349.316362092 6855
370.223404725 6856
385.645729842 6857
395.897658491 6858
399.403578984 6859
394.010625049 6860
377.560735628 6861
348.893579085 6862
313.973119692 6863
281.864110721 6864
261.664274372 6865
261.690545777 6866
281.673257717 6867
316.10626049 6868
359.396734331 6869
406.201882075 6870
455.68726973 6871
510.83135893 6872
574.739329384 6873
650.21334459 6874
730.59534495 6875
798.216183413 6876
834.750869161 6877
822.106169489 6878
760.074059853 6879
677.165142695 6880
604.536741708 6881
573.335386951 6882
597.963328758 6883
655.391865861 6884
717.479465652 6885
756.026118241 6886
752.611063399 6887
719.842730135 6888
676.473334767 6889
641.29705806 6890
628.407626731 6891
630.470140793 6892
634.065812193 6893
625.745724898 6894
594.67576286 6895
547.236714026 6896
496.730584013 6897
456.507363398 6898
438.257773238 6899
437.480428351 6900
440.62502715 6901
434.013147492 6902
405.021814528 6903
357.17482339 6904
306.419575164 6905
269.055799232 6906
260.805279818 6907
282.158317532 6908
317.67574237 6909
351.137082077 6910
366.48991472 6911
357.419712511 6912
331.47675244 6913
297.285097657 6914
263.470655123 6915
236.561712361 6916
218.976848693 6917
212.664272729 6918
219.571353046 6919
238.457278902 6920
259.450739861 6921
271.215143338 6922
262.38909827 6923
226.942494708 6924
179.229389961 6925
138.490115332 6926
124.007643761 6927
150.509700917 6928
207.949306494 6929
277.928007003 6930
342.000549863 6931
383.957560656 6932
405.202749812 6933
415.387372253 6934
424.230398653 6935
440.791681741 6936
466.37191961 6937
497.319191377 6938
529.894047238 6939
560.410503926 6940
586.269145078 6941
605.807352278 6942
617.389679247 6943
619.38093258 6944
610.27494255 6945
588.714801933 6946
553.349417097 6947
502.879810149 6948
439.37006762 6949
370.132484075 6950
302.950072582 6951
245.598429453 6952
201.773779706 6953
166.507955289 6954
133.717565024 6955
97.3098465909 6956
55.5197222849 6957
19.2200660786 6958
1.59616934817 6959
15.8619926264 6960
69.638859026 6961
147.818558729 6962
229.507539188 6963
293.766667878 6964
323.536148389 6965
323.913726732 6966
307.802100109 6967
288.14054347 6968
276.259733791 6969
270.386947324 6970
262.431439066 6971
244.244957882 6972
208.613661914 6973
159.434128782 6974
107.816827387 6975
65.0176967632 6976
41.7317986849 6977
38.1843549165 6978
45.5285960908 6979
54.5999240658 6980
56.447347335 6981
49.0856638104 6982
38.5509181864 6983
31.3345106074 6984
33.8621552685 6985
47.9962644154 6986
68.6182851208 6987
90.0106063626 6988
106.459823721 6989
114.64845658 6990
116.173641128 6991
113.237082489 6992
108.043762918 6993
101.757005339 6994
92.6473554483 6995
78.4849759003 6996
57.0354023886 6997
27.234224285 6998
0.0 6999
0.0 7000
0.0 7001
0.0 7002
0.0 7003
0.0 7004
0.0 7005
0.0 7006
15.3838505251 7007
77.4888516448 7008
135.824770427 7009
181.458868423 7010
208.461272621 7011
212.664359861 7012
189.914372897 7013
136.96480779 7014
64.4229303455 7015
0.0 7016
0.0 7017
0.0 7018
0.0 7019
46.3779714134 7020
106.070714568 7021
140.155416352 7022
140.026965326 7023
116.684117041 7024
82.5137829854 7025
49.8900530611 7026
27.8566304649 7027
19.5728321575 7028
27.6048924102 7029
54.5113232011 7030
99.4593285065 7031
153.690606429 7032
207.300810471 7033
250.366406082 7034
275.852874402 7035
285.810199536 7036
284.066354193 7037
274.457535793 7038
260.727518916 7039
246.204365511 7040
234.110952178 7041
227.676568697 7042
229.163771718 7043
235.252487005 7044
240.626632686 7045
239.95674668 7046
229.103353777 7047
213.37743101 7048
202.579693598 7049
206.557884003 7050
234.009996187 7051
280.71686353 7052
334.410787484 7053
382.677826547 7054
413.838306689 7055
428.459641504 7056
437.045105539 7057
450.404496051 7058
479.091882783 7059
526.715006277 7060
589.592170596 7061
663.690622552 7062
744.974518186 7063
829.643252479 7064
914.217913597 7065
995.235830334 7066
1069.24164488 7067
1134.06757528 7068
1189.81156778 7069
1236.80119136 7070
1275.36975794 7071
1306.86261763 7072
1334.9557929 7073
1363.65789458 7074
1396.98478977 7075
1435.73017274 7076
1470.90145888 7077
1491.63822096 7078
1487.05747323 7079
1452.33514029 7080
1407.2159969 7081
1377.69717757 7082
1389.82892768 7083
1462.3635196 7084
1574.508986 7085
1692.17574451 7086
1781.19305487 7087
1812.89722765 7088
1798.91762804 7089
1768.65171781 7090
1751.63543283 7091
1774.42636014 7092
1833.51162815 7093
1908.16369967 7094
1977.40797614 7095
2021.188343 7096
2032.79299382 7097
2015.31798985 7098
1972.08930775 7099
1906.54406693 7100
1824.16561098 7101
1732.37021575 7102
1638.66119406 7103
1550.42612022 7104
1470.71460676 7105
1397.38867368 7106
1328.00139428 7107
1260.16024699 7108
1194.8528223 7109
1138.23867917 7110
1096.92571569 7111
1077.50536172 7112
1082.69011783 7113
1107.59883168 7114
1146.46055975 7115
1193.49547843 7116
1244.8658468 7117
1301.64801847 7118
1365.68514424 7119
1438.82344705 7120
1520.10883576 7121
1599.37941549 7122
1664.56321866 7123
1703.56166967 7124
1708.51326436 7125
1689.89880191 7126
1663.15783891 7127
1643.76654709 7128
1642.9352003 7129
1647.58559668 7130
1636.07739938 7131
1586.7095502 7132
1482.15295326 7133
1338.05294713 7134
1185.01573313 7135
1053.79639424 7136
972.140804189 7137
936.923704223 7138
927.164445638 7139
921.613671497 7140
900.071006292 7141
857.532253767 7142
800.1099667 7143
734.186907799 7144
666.222190995 7145
603.910044663 7146
556.085949257 7147
531.649879765 7148
539.108742697 7149
574.419299348 7150
619.038795219 7151
653.572582307 7152
658.813697884 7153
627.619270128 7154
570.376754253 7155
498.876595442 7156
424.909514026 7157
357.24133355 7158
299.085668109 7159
253.073201872 7160
221.834520517 7161
206.194319564 7162
202.7933184 7163
207.674251059 7164
216.868618194 7165
226.82328086 7166
235.233540468 7167
240.018715525 7168
239.092205958 7169
231.314338286 7170
219.151814819 7171
205.93250518 7172
194.994749911 7173
188.991862577 7174
187.199272127 7175
187.860997712 7176
189.215153067 7177
189.178863528 7178
183.679707758 7179
167.86342968 7180
136.857876682 7181
87.1324362342 7182
26.2575343791 7183
0.0 7184
0.0 7185
0.0 7186
0.0 7187
0.0 7188
9.63198161795 7189
78.6094524998 7190
151.482912245 7191
214.71668177 7192
254.636899492 7193
258.235554845 7194
227.22808758 7195
177.222073453 7196
124.421267602 7197
84.7187357411 7198
62.7254181578 7199
49.902443761 7200
36.9403224895 7201
14.6615487515 7202
0.0 7203
0.0 7204
0.0 7205
0.0 7206
0.0 7207
15.1966699132 7208
66.5727599863 7209
108.100594024 7210
130.947718068 7211
135.615151837 7212
123.859088916 7213
97.4451229706 7214
60.0879340207 7215
20.881785932 7216
0.0 7217
0.0 7218
0.0 7219
14.692505811 7220
42.8999402022 7221
60.4603736034 7222
58.3237150069 7223
43.7393337438 7224
28.4587664636 7225
24.2905665397 7226
40.1916486288 7227
69.0544617244 7228
98.1930794023 7229
114.852626869 7230
108.068749636 7231
79.8343804743 7232
37.7213009314 7233
0.0 7234
0.0 7235
0.0 7236
0.0 7237
0.0 7238
0.0 7239
16.5032896568 7240
94.2246754953 7241
156.48028167 7242
183.38337366 7243
173.751609806 7244
141.253116706 7245
100.038061021 7246
63.9537959216 7247
38.6824648402 7248
22.0228784997 7249
11.4419911477 7250
4.3860914983 7251
0.0 7252
0.0 7253
0.0 7254
0.0 7255
0.0 7256
0.0 7257
0.0 7258
0.0 7259
0.0 7260
0.0 7261
0.0 7262
0.0 7263
0.0 7264
0.0 7265
0.0 7266
0.0 7267
0.0 7268
0.0 7269
0.0 7270
0.0 7271
0.0 7272
0.0 7273
0.0 7274
0.0 7275
0.0 7276
0.0 7277
0.0 7278
0.0 7279
0.0 7280
0.0 7281
0.0 7282
19.9345218188 7283
13.461518266 7284
0.0 7285
0.0 7286
0.0 7287
0.0 7288
0.0 7289
9.82948036027 7290
37.4139678155 7291
42.6851545671 7292
26.8686913156 7293
0.0 7294
0.0 7295
0.0 7296
0.0 7297
0.0 7298
0.0 7299
