0.0 3800
0.0 3801
0.0 3802
0.0 3803
0.0 3804
0.0 3805
0.0 3806
0.0 3807
0.0 3808
0.0 3809
0.0 3810
0.0 3811
0.0 3812
0.0 3813
0.0 3814
0.0 3815
0.0 3816
0.0 3817
0.0 3818
0.0 3819
0.0 3820
0.0 3821
0.0 3822
0.0 3823
0.0 3824
0.0 3825
0.0 3826
0.0 3827
0.0 3828
0.0 3829
0.0 3830
0.0 3831
0.0 3832
0.0 3833
0.0 3834
0.0 3835
0.0 3836
0.0 3837
0.0 3838
0.0 3839
0.0 3840
0.0 3841
0.0 3842
0.0 3843
0.0 3844
0.0 3845
0.0 3846
0.0 3847
0.0 3848
0.0 3849
0.0 3850
0.0 3851
0.0 3852
0.0 3853
13.7019605239 3854
80.6946345327 3855
149.223585711 3856
200.874691851 3857
217.34511262 3858
185.875103347 3859
118.18920266 3860
32.7943232511 3861
0.0 3862
0.0 3863
0.0 3864
0.0 3865
0.0 3866
0.0 3867
0.0 3868
0.0 3869
0.0 3870
0.0 3871
0.0 3872
0.0 3873
0.0 3874
0.0 3875
0.0 3876
0.0 3877
0.0 3878
0.0 3879
82.5612641554 3880
172.270404363 3881
184.662447522 3882
144.861787715 3883
78.2704849162 3884
10.092132197 3885
0.0 3886
0.0 3887
0.0 3888
0.0 3889
0.721487320906 3890
69.9731335797 3891
137.32253252 3892
183.989981517 3893
191.521799517 3894
157.248941385 3895
105.023662076 3896
61.1050197722 3897
51.5798495668 3898
96.3389595804 3899
176.531564441 3900
258.197063559 3901
307.560405286 3902
291.761345374 3903
206.818227894 3904
87.0181217033 3905
0.0 3906
0.0 3907
0.0 3908
0.0 3909
0.0 3910
62.1784006101 3911
118.741765889 3912
146.344232206 3913
148.535224293 3914
129.500160016 3915
93.3972662329 3916
46.7972880245 3917
5.22672049198 3918
0.0 3919
7.05439940272 3920
83.4198799969 3921
202.638887671 3922
328.935198604 3923
426.070047912 3924
458.064270908 3925
407.275859533 3926
306.801296443 3927
198.304094044 3928
123.176510814 3929
119.045776755 3930
182.788922667 3931
285.24375439 3932
397.004717865 3933
488.919974139 3934
543.161635627 3935
565.789387883 3936
565.881438697 3937
552.457581077 3938
533.928177171 3939
514.0690523 3940
494.363720618 3941
476.269944429 3942
461.256411546 3943
452.202543227 3944
454.294363085 3945
472.900266886 3946
513.354657939 3947
578.772987563 3948
658.972480782 3949
738.846983477 3950
803.376396952 3951
837.88228796 3952
836.788905501 3953
805.910730134 3954
751.751055733 3955
680.772550731 3956
601.079947328 3957
528.270076288 3958
479.956283825 3959
473.643661373 3960
525.671634755 3961
629.29251555 3962
755.556699308 3963
874.77941954 3964
957.458677174 3965
984.486129971 3966
970.649586137 3967
937.620853772 3968
906.941090991 3969
898.631432915 3970
912.949449625 3971
935.610965416 3972
952.074269906 3973
947.911194769 3974
918.110758688 3975
880.57199656 3976
856.531727251 3977
867.102563076 3978
930.139553151 3979
1033.07907997 3980
1146.44171544 3981
1240.73073977 3982
1286.7905064 3983
1272.58438374 3984
1217.17515239 3985
1142.8320173 3986
1071.69721463 3987
1023.4929308 3988
1002.16055074 3989
1005.07245746 3990
1029.59416033 3991
1072.97801103 3992
1126.80015344 3993
1174.85864972 3994
1200.471792 3995
1187.04908116 3996
1124.66071578 3997
1035.61580567 3998
951.940896713 3999
905.491872161 4000
926.754224232 4001
1016.65187401 4002
1145.6838481 4003
1283.10007658 4004
1398.31421585 4005
1469.04135123 4006
1501.80577228 4007
1509.41537145 4008
1504.61073602 4009
1499.6170796 4010
1499.80407334 4011
1505.2492799 4012
1515.8922968 4013
1531.67083119 4014
1551.53862573 4015
1571.94858688 4016
1588.97845954 4017
1598.72543614 4018
1598.29141156 4019
1594.6401911 4020
1600.36457344 4021
1628.06376713 4022
1690.17689661 4023
1788.776056 4024
1906.76683165 4025
2025.05152598 4026
2124.62398818 4027
2194.376266 4028
2276.78704286 4029
2436.58619222 4030
2738.2789307 4031
3245.14413827 4032
3979.62483338 4033
4908.71473563 4034
5995.58094502 4035
7203.56377597 4036
8504.76362438 4037
9912.65189769 4038
11453.0046377 4039
13151.488334 4040
15029.9345492 4041
17023.292202 4042
18979.4396682 4043
20743.0743911 4044
22159.5716362 4045
23119.1370506 4046
23661.6442632 4047
23858.2610088 4048
23779.8408767 4049
23494.5266894 4050
23036.373571 4051
22414.3428799 4052
21636.7701577 4053
20711.9965769 4054
19661.4705332 4055
18537.9681335 4056
17398.6442531 4057
16300.4217796 4058
15294.2765601 4059
14378.777336 4060
13524.5617143 4061
12702.1205051 4062
11882.2351431 4063
11049.6688304 4064
10212.9730152 4065
9382.99370411 4066
8570.5356602 4067
7788.19442615 4068
7059.79391028 4069
6413.35602444 4070
5876.80862553 4071
5477.24202242 4072
5216.03103125 4073
5062.93426931 4074
4985.86967079 4075
4952.87383996 4076
4935.26881331 4077
4917.87445133 4078
4889.10305015 4079
4837.40756048 4080
4751.97535739 4081
4635.13243836 4082
4500.87300393 4083
4363.55171879 4084
4237.46989441 4085
4132.52206299 4086
4045.88534892 4087
3972.45176744 4088
3907.13090997 4089
3845.37640364 4090
3788.70667174 4091
3742.50233525 4092
3712.18952515 4093
3703.12766059 4094
3713.57513622 4095
3727.42236436 4096
3726.86988018 4097
3694.1739371 4098
3614.54130262 4099
3494.73852854 4100
3351.19744474 4101
3200.34541154 4102
3058.48799069 4103
2938.3826983 4104
2847.74086806 4105
2793.86589701 4106
2784.04031497 4107
2821.83607951 4108
2892.50696123 4109
2975.68261553 4110
3051.05048071 4111
3098.98574368 4112
3114.83124197 4113
3109.09263004 4114
3092.9235953 4115
3077.44574927 4116
3071.42703929 4117
3075.84523871 4118
3090.05450075 4119
3113.410828 4120
3144.94716826 4121
3179.30597584 4122
3207.98996758 4123
3222.45534908 4124
3214.20962515 4125
3181.54587974 4126
3138.13381753 4127
3099.73180822 4128
3082.05789757 4129
3098.71969849 4130
3145.87894903 4131
3210.99583369 4132
3281.49763535 4133
3344.90297348 4134
3392.48299182 4135
3421.36616206 4136
3429.19790828 4137
3413.62869654 4138
3374.86204089 4139
3327.0131355 4140
3288.88829682 4141
3279.25359816 4142
3316.08196471 4143
3396.90370639 4144
3496.92847526 4145
3590.28727075 4146
3651.17071659 4147
3661.40634684 4148
3630.16943184 4149
3572.76243245 4150
3504.45291356 4151
3440.17973078 4152
3390.51462388 4153
3362.70775684 4154
3363.91108898 4155
3401.23620617 4156
3474.15482518 4157
3563.85367983 4158
3648.87522493 4159
3707.80762535 4160
3721.9734675 4161
3696.557924 4162
3649.17912399 4163
3597.52647621 4164
3559.11677693 4165
3542.15093322 4166
3539.74807064 4167
3543.66272005 4168
3545.66593817 4169
3539.28892827 4170
3527.87779924 4171
3518.19490751 4172
3516.99311873 4173
3530.88148856 4174
3562.80001198 4175
3611.61994293 4176
3676.00258174 4177
3754.61198579 4178
3843.66352465 4179
3930.45470056 4180
4000.27706324 4181
4038.44976297 4182
4031.53787026 4183
3984.05700426 4184
3914.16049395 4185
3840.30961811 4186
3780.90874353 4187
3747.8242126 4188
3737.43395097 4189
3743.87317926 4190
3761.28826616 4191
3784.29927546 4192
3811.55152387 4193
3843.75440307 4194
3881.63271296 4195
3925.87441664 4196
3974.88918199 4197
4023.48215912 4198
4066.14790586 4199
4097.39082784 4200
4112.43383688 4201
4110.34900259 4202
4091.5046245 4203
4056.26912262 4204
4005.30986395 4205
3947.07961758 4206
3898.33385738 4207
3876.20522715 4208
3897.79561179 4209
3972.94929503 4210
4086.59445925 4211
4218.32824788 4212
4347.78313692 4213
4455.40236651 4214
4532.13364834 4215
4576.45830833 4216
4587.02454766 4217
4562.50827525 4218
4506.83792145 4219
4435.5741462 4220
4365.81387748 4221
4314.62533436 4222
4297.13037328 4223
4313.26432241 4224
4355.75895341 4225
4417.31458115 4226
4490.59816169 4227
4565.94123135 4228
4630.26967018 4229
4670.26141783 4230
4672.61694259 4231
4628.97081738 4232
4554.94130185 4233
4473.42148831 4234
4407.26748554 4235
4378.51596346 4236
4392.19480549 4237
4436.88277522 4238
4500.50292284 4239
4571.00027283 4240
4638.61958724 4241
4700.58757835 4242
4755.4612072 4243
4801.80006846 4244
4838.38441297 4245
4866.50707942 4246
4889.06512517 4247
4908.97700558 4248
4929.14737249 4249
4951.41994339 4250
4975.57975396 4251
5001.1752098 4252
5027.75576359 4253
5054.37150325 4254
5076.70759218 4255
5089.06806837 4256
5085.76232172 4257
5061.39424965 4258
5021.0405721 4259
4983.02618476 4260
4966.49676771 4261
4990.5647969 4262
5066.42469911 4263
5172.779458 4264
5280.01069559 4265
5358.55219736 4266
5380.53635594 4267
5345.779513 4268
5277.01605528 4269
5197.63333328 4270
5130.9598776 4271
5092.86362498 4272
5080.29285793 4273
5087.23739263 4274
5107.69805211 4275
5135.65199978 4276
5164.7744076 4277
5188.58456002 4278
5200.61213503 4279
5194.50625554 4280
5171.17364127 4281
5143.21500946 4282
5124.27013317 4283
5127.95379854 4284
5164.33922806 4285
5224.52524673 4286
5293.26721112 4287
5355.34437484 4288
5396.02195022 4289
5411.91208035 4290
5411.41803618 4291
5403.47787366 4292
5397.01182966 4293
5399.3472111 4294
5412.66602396 4295
5438.10344739 4296
5476.7925412 4297
5529.16095413 4298
5587.04942308 4299
5636.57025075 4300
5663.75867673 4301
5654.75626948 4302
5606.53200599 4303
5537.75152497 4304
5469.63825929 4305
5423.37295246 4306
5416.28325641 4307
5439.50881296 4308
5473.22391818 4309
5497.60616533 4310
5493.38059038 4311
5460.00033663 4312
5420.62280117 4313
5399.88554522 4314
5422.37359715 4315
5503.73897587 4316
5623.57505672 4317
5752.38418754 4318
5860.73183359 4319
5920.77621626 4320
5929.34285896 4321
5903.13014025 4322
5859.36850515 4323
5815.2380678 4324
5783.83083279 4325
5768.35556021 4326
5770.54366551 4327
5792.12240991 4328
5834.65355865 4329
5898.32283907 4330
5982.62228067 4331
6087.03879117 4332
6211.01686875 4333
6351.6017402 4334
6502.23737117 4335
6656.08509769 4336
6806.32242453 4337
6954.61645439 4338
7144.09961884 4339
7430.46575767 4340
7869.27727723 4341
8517.721721 4342
9469.50162456 4343
10852.7025176 4344
12796.4419036 4345
15429.4858529 4346
18857.4284686 4347
23119.9729462 4348
28244.9947517 4349
34260.2813529 4350
41164.4511358 4351
48657.3850973 4352
56264.1845781 4353
63508.9174005 4354
69919.3033164 4355
75224.6089942 4356
79501.7783223 4357
82862.149235 4358
85416.7798411 4359
87244.337689 4360
88239.8172463 4361
88233.4699812 4362
87055.9483797 4363
84549.1301496 4364
80836.0114067 4365
76339.9166363 4366
71497.7865861 4367
66745.3461669 4368
62428.2194378 4369
58598.2718445 4370
55247.016398 4371
52365.9869397 4372
49937.2888329 4373
47829.6375113 4374
45837.1008369 4375
43753.0019513 4376
41372.1137362 4377
38593.7495941 4378
35519.5177712 4379
32273.9639714 4380
28981.2756396 4381
25761.6072202 4382
22711.1268416 4383
19916.3330739 4384
17463.4355944 4385
15435.8732339 4386
13837.4778336 4387
12578.362186 4388
11563.5006787 4389
10698.1548851 4390
9909.02677742 4391
9200.41414627 4392
8594.28330263 4393
8112.52923775 4394
7774.60878875 4395
7567.74999647 4396
7456.01760756 4397
7403.07572207 4398
7372.76326277 4399
7339.16636773 4400
7297.88168915 4401
7247.24538211 4402
7185.59976531 4403
7112.93286553 4404
7040.80259419 4405
6985.70611778 4406
6964.10428516 4407
6991.82385288 4408
7063.40684422 4409
7146.54874579 4410
7207.32876237 4411
7211.94267609 4412
7139.87250686 4413
7022.2724096 4414
6902.82614102 4415
6825.06531224 4416
6828.87009499 4417
6902.27718594 4418
6993.90309476 4419
7051.54915741 4420
7023.363106 4421
6891.26862985 4422
6712.03619661 4423
6552.32664369 4424
6478.55897759 4425
6545.89331133 4426
6727.2680902 4427
6958.71987906 4428
7176.33960758 4429
7317.40532109 4430
7357.45672531 4431
7322.1435717 4432
7240.42889196 4433
7141.16760705 4434
7050.07896076 4435
6980.46741584 4436
6942.45319798 4437
6946.11694548 4438
7000.1473564 4439
7092.37735589 4440
7194.35215995 4441
7277.28832014 4442
7312.57978067 4443
7286.44279648 4444
7218.64189128 4445
7133.50348322 4446
7055.25657064 4447
7005.50651538 4448
6986.61032175 4449
6992.13679501 4450
7015.63349625 4451
7050.67576021 4452
7090.93714373 4453
7130.21257782 4454
7162.32887523 4455
7181.13941682 4456
7182.43571469 4457
7169.84106557 4458
7148.9588317 4459
7125.3692275 4460
7104.51040064 4461
7089.98431113 4462
7083.96292205 4463
7088.5710512 4464
7105.91242436 4465
7135.38467809 4466
7170.30543119 4467
7203.18727049 4468
7226.57614292 4469
7234.79262562 4470
7235.14947255 4471
7240.77445879 4472
7264.76556483 4473
7319.75924304 4474
7402.78438894 4475
7490.72808803 4476
7559.23851023 4477
7584.07572306 4478
7550.18988752 4479
7478.5638334 4480
7398.9888077 4481
7341.11835536 4482
7332.45602186 4483
7371.09742497 4484
7433.03391081 4485
7493.82273379 4486
7529.18994372 4487
7525.05358475 4488
7489.20674604 4489
7432.25650071 4490
7364.75950268 4491
7297.4681217 4492
7242.80788208 4493
7213.88488468 4494
7223.74361015 4495
7284.79954072 4496
7389.86680426 4497
7507.73165998 4498
7605.8504196 4499
7651.84078266 4500
7626.15140976 4501
7556.28749785 4502
7480.49455283 4503
7436.82772698 4504
7460.2451919 4505
7546.9682764 4506
7665.88172649 4507
7785.44474611 4508
7874.35771541 4509
7912.75636762 4510
7903.5711532 4511
7852.44174534 4512
7764.97990586 4513
7649.08240484 4514
7527.49090173 4515
7428.72254972 4516
7381.16017849 4517
7411.99531828 4518
7517.72782819 4519
7660.13705332 4520
7799.31960756 4521
7895.58523976 4522
7921.77678019 4523
7892.23949858 4524
7829.91143547 4525
7757.60969533 4526
7696.71235644 4527
7653.18857301 4528
7623.10576763 4529
7602.38632437 4530
7586.99434879 4531
7574.66985718 4532
7566.34537908 4533
7563.28314227 4534
7566.7388543 4535
7577.82559862 4536
7596.88485193 4537
7623.98569732 4538
7659.19604569 4539
7702.27392923 4540
7745.63765698 4541
7774.28667716 4542
7772.971921 4543
7726.54144501 4544
7631.39022564 4545
7517.67799575 4546
7421.57159533 4547
7379.02877467 4548
7420.70537177 4549
7526.84982052 4550
7649.22883149 4551
7739.55867612 4552
7750.35906245 4553
7667.93777802 4554
7531.90838789 4555
7386.38794424 4556
7275.23232016 4557
7233.57604107 4558
7255.20281116 4559
7321.44511999 4560
7413.74298042 4561
7513.81941266 4562
7606.72595711 4563
7680.44944644 4564
7723.14803806 4565
7723.07189002 4566
7675.75315413 4567
7594.80786563 4568
7496.55106448 4569
7397.19748602 4570
7311.69832955 4571
7245.4828428 4572
7199.37672569 4573
7174.16956901 4574
7170.62271114 4575
7188.52814256 4576
7226.3753994 4577
7282.56986394 4578
7355.52656212 4579
7441.10652152 4580
7524.89605201 4581
7589.98637707 4582
7619.57581668 4583
7598.77451648 4584
7538.54853022 4585
7469.01200207 4586
7420.54666442 4587
7423.21664273 4588
7487.92462841 4589
7586.20269413 4590
7684.88511021 4591
7751.02185031 4592
7757.57129404 4593
7714.57424262 4594
7646.717829 4595
7578.56706431 4596
7533.84255692 4597
7516.66194584 4598
7509.34388668 4599
7493.17313978 4600
7449.56117521 4601
7369.65284365 4602
7275.57850763 4603
7195.53204331 4604
7157.51756871 4605
7186.00818782 4606
7269.39003833 4607
7374.28225436 4608
7467.21900753 4609
7515.26577674 4610
7508.32545712 4611
7474.137921 4612
7443.84558788 4613
7448.37796496 4614
7509.51951893 4615
7603.78671758 4616
7693.6455659 4617
7741.81429744 4618
7713.20130213 4619
7609.97101046 4620
7467.56549329 4621
7322.37232358 4622
7210.49050164 4623
7154.20409285 4624
7141.57988655 4625
7155.50447377 4626
7178.98347714 4627
7197.16079537 4628
7211.36038451 4629
7230.57700397 4630
7263.7893286 4631
7319.64294917 4632
7395.96241718 4633
7476.46719515 4634
7544.03395617 4635
7581.6608487 4636
7578.90310719 4637
7549.98359671 4638
7514.89689465 4639
7493.49463372 4640
7504.02042981 4641
7545.44945203 4642
7603.34723573 4643
7663.10434253 4644
7710.26125499 4645
7735.47406942 4646
7739.05122734 4647
7722.38140299 4648
7686.84479146 4649
7635.05237307 4650
7576.8043463 4651
7524.4253821 4652
7490.15247571 4653
7485.68657704 4654
7512.30304173 4655
7560.8698884 4656
7621.86500784 4657
7685.83673478 4658
7744.07008595 4659
7789.78296255 4660
7816.56902223 4661
7818.07058216 4662
7789.57363733 4663
7740.66964985 4664
7688.39482268 4665
7649.72513664 4666
7641.22573621 4667
7665.62017501 4668
7706.04908892 4669
7744.28128466 4670
7762.22273813 4671
7747.75319544 4672
7713.09079365 4673
7676.65305616 4674
7656.71905178 4675
7669.9420112 4676
7711.525216 4677
7760.74990585 4678
7796.66959181 4679
7798.59270689 4680
7759.34323358 4681
7698.83122988 4682
7640.07805351 4683
7605.9285182 4684
7615.47844906 4685
7665.78671362 4686
7745.64744491 4687
7843.92391861 4688
7949.59663922 4689
8052.52103757 4690
8143.45100524 4691
8213.25199008 4692
8252.86468675 4693
8257.40260472 4694
8233.85193342 4695
8191.2676198 4696
8138.63331546 4697
8084.66710799 4698
8036.21925672 4699
7999.12521681 4700
7979.16550871 4701
7981.9837007 4702
8008.7136681 4703
8054.07107069 4704
8112.31755583 4705
8177.75906199 4706
8244.20172755 4707
8303.25018518 4708
8345.99419117 4709
8363.59576583 4710
8348.38006945 4711
8308.07716769 4712
8261.66427722 4713
8228.23266424 4714
8226.63045188 4715
8263.96492546 4716
8324.39961442 4717
8389.53835029 4718
8441.13314942 4719
8464.08864295 4720
8461.12988905 4721
8441.41299377 4722
8414.03084859 4723
8387.8431327 4724
8367.98906837 4725
8355.92132604 4726
8352.92176198 4727
8360.26055375 4728
8377.27874978 4729
8398.10655682 4730
8416.04300176 4731
8424.43969419 4732
8418.34436881 4733
8406.68400736 4734
8405.25585605 4735
8429.78240359 4736
8495.45887793 4737
8600.87566317 4738
8722.65563106 4739
8836.08049272 4740
8916.63334732 4741
8946.93969553 4742
8935.9129395 4743
8898.54788576 4744
8849.71828434 4745
8803.72051471 4746
8769.10724037 4747
8750.58040265 4748
8752.73203808 4749
8780.04145837 4750
8830.20489781 4751
8888.95311844 4752
8940.90203979 4753
8970.7907589 4754
8967.10308807 4755
8937.1493739 4756
8894.22388219 4757
8851.51677532 4758
8821.76368555 4759
8811.13681018 4760
8820.0465849 4761
8848.70082731 4762
8897.29706759 4763
8963.09863408 4764
9036.47298164 4765
9106.86565608 4766
9163.80936845 4767
9198.28009312 4768
9210.96585967 4769
9206.70747649 4770
9190.32631707 4771
9166.5975366 4772
9140.13944798 4773
9115.39531456 4774
9096.76166921 4775
9088.60178069 4776
9092.70572024 4777
9102.89287639 4778
9111.47559373 4779
9110.82885858 4780
9094.50336049 4781
9067.00621926 4782
9038.96831098 4783
9021.00504018 4784
9023.51877802 4785
9050.13922109 4786
9094.57667099 4787
9149.79593117 4788
9208.81924558 4789
9264.64072493 4790
9309.9647891 4791
9337.46536402 4792
9339.87543913 4793
9310.9434868 4794
9257.59428681 4795
9196.22722244 4796
9143.32285881 4797
9115.16186516 4798
9120.69104971 4799
9155.1355972 4800
9212.23840628 4801
9285.79210218 4802
9368.49429099 4803
9446.82299463 4804
9505.22856145 4805
9528.28286947 4806
9501.85502299 4807
9435.02450498 4808
9357.94631301 4809
9301.31282323 4810
9295.519964 4811
9354.99255182 4812
9455.99348264 4813
9569.3337782 4814
9666.05784504 4815
9720.8682721 4816
9733.18487867 4817
9713.11240063 4818
9670.722333 4819
9616.03157308 4820
9559.80782926 4821
9513.6838926 4822
9489.24992929 4823
9497.99947534 4824
9544.36142852 4825
9611.272451 4826
9677.68861401 4827
9722.73465372 4828
9728.37342784 4829
9701.79963098 4830
9663.87869351 4831
9635.45152228 4832
9636.84464397 4833
9671.6071839 4834
9719.75363915 4835
9759.67376497 4836
9769.92943648 4837
9735.1627904 4838
9663.17346354 4839
9567.30796344 4840
9460.81019296 4841
9356.82171567 4842
9268.42368131 4843
9208.62283564 4844
9190.32466608 4845
9226.14925541 4846
9313.21680125 4847
9421.96186948 4848
9520.37898023 4849
9576.71419762 4850
9568.45038288 4851
9517.21782232 4852
9457.90098711 4853
9425.11822262 4854
9451.03917956 4855
9531.70133377 4856
9633.7929455 4857
9723.39215356 4858
9766.94288434 4859
9748.82670233 4860
9690.96779758 4861
9619.88757188 4862
9561.90474892 4863
9538.83983051 4864
9546.28122192 4865
9570.07619736 4866
9596.1619389 4867
9610.96715225 4868
9609.64417631 4869
9595.84839273 4870
9573.56373253 4871
9546.74573881 4872
9519.50154388 4873
9496.37386421 4874
9481.94254066 4875
9480.75519542 4876
9495.85961872 4877
9519.29677801 4878
9538.19244562 4879
9539.74080323 4880
9511.71820782 4881
9456.98387184 4882
9395.86141537 4883
9349.51188388 4884
9338.93760883 4885
9373.9061782 4886
9429.93681984 4887
9476.15476149 4888
9481.90871408 4889
9421.19958994 4890
9309.01484623 4891
9182.22123056 4892
9077.63623742 4893
9031.26489085 4894
9054.74316222 4895
9126.63606272 4896
9223.27744362 4897
9321.1669494 4898
9399.3554241 4899
9445.81760634 4900
9450.63119732 4901
9403.94376372 4902
9298.73933357 4903
9159.23646156 4904
9029.13755019 4905
8952.1511966 4906
8971.13557996 4907
9092.92793462 4908
9267.39784187 4909
9439.67696722 4910
9555.26854961 4911
9574.58653406 4912
9521.68661654 4913
9437.71259441 4914
9363.53621704 4915
9336.95732235 4916
9356.96175806 4917
9394.45428493 4918
9419.89344535 4919
9404.13511195 4920
9338.23991732 4921
9250.09724409 4922
9171.35811899 4923
9133.46688565 4924
9159.44389335 4925
9230.38866229 4926
9314.29524774 4927
9379.35705445 4928
9395.77322279 4929
9364.31792292 4930
9310.99140332 4931
9262.39608618 4932
9244.8715393 4933
9268.6409775 4934
9310.42244376 4935
9342.86888091 4936
9338.80121903 4937
9277.62419926 4938
9176.55714185 4939
9066.42721604 4940
8977.89252962 4941
8940.00269215 4942
8952.49018146 4943
8987.83987667 4944
9017.65288088 4945
9013.75090039 4946
8962.69921017 4947
8885.76719317 4948
8809.12592096 4949
8758.79423134 4950
8755.67366883 4951
8787.20175674 4952
8827.16725326 4953
8849.47050285 4954
8829.23373039 4955
8768.44069063 4956
8696.92470088 4957
8645.65584486 4958
8645.40016677 4959
8710.08678874 4960
8809.1661707 4961
8904.94458813 4962
8959.93579228 4963
8942.76763718 4964
8867.01579879 4965
8766.69419573 4966
8675.7387318 4967
8627.1373024 4968
8630.68917378 4969
8669.67989188 4970
8726.02018539 4971
8781.72524089 4972
8822.33613927 4973
8843.62572601 4974
8843.25391538 4975
8818.89236257 4976
8769.30780884 4977
8702.48905602 4978
8631.03460827 4979
8567.510446 4980
8524.19970919 4981
8505.29673749 4982
8504.92282885 4983
8516.59471407 4984
8533.86010297 4985
8550.29803111 4986
8559.51963837 4987
8555.16426489 4988
8530.90153287 4989
8481.94868488 4990
8417.832524 4991
8355.87249562 4992
8313.38858906 4993
8307.29475498 4994
8340.50708484 4995
8397.10497803 4996
8459.90246503 4997
8511.79225467 4998
8539.34963147 4999
8541.91617752 5000
8521.63291248 5001
8480.63136215 5002
8421.70011668 5003
8354.49672624 5004
8292.68222651 5005
8249.91025583 5006
8239.52115899 5007
8261.96555837 5008
8299.14867488 5009
8331.60395778 5010
8339.94562025 5011
8311.61388932 5012
8259.56401329 5013
8202.69861848 5014
8159.84693591 5015
8148.0735247 5016
8165.60692046 5017
8198.97474875 5018
8234.58223831 5019
8259.0143536 5020
8266.32272445 5021
8261.88639482 5022
8252.00969348 5023
8242.97648252 5024
8239.16815415 5025
8237.44289379 5026
8232.79457903 5027
8220.23540221 5028
8195.62212484 5029
8164.62534082 5030
8139.30762301 5031
8131.79955332 5032
8154.01457476 5033
8206.24665346 5034
8270.35708183 5035
8326.62528779 5036
8355.39341708 5037
8342.86448566 5038
8299.50408738 5039
8242.06540176 5040
8187.24860763 5041
8150.59712615 5042
8133.86788527 5043
8129.50522432 5044
8129.80030297 5045
8127.11997805 5046
8117.48492955 5047
8102.90322921 5048
8085.92924299 5049
8069.11446804 5050
8054.55843386 5051
8042.44960281 5052
8032.46587057 5053
8024.28368097 5054
8017.53909348 5055
8011.34364197 5056
8004.43888997 5057
7995.56677808 5058
7983.48275474 5059
7967.9066217 5060
7950.16879099 5061
7931.75275441 5062
7914.1345512 5063
7898.42279132 5064
7884.10597053 5065
7870.23100672 5066
7855.84731047 5067
7840.21706331 5068
7825.36283383 5069
7815.24296929 5070
7813.84945255 5071
7825.11686851 5072
7849.32275235 5073
7880.55556053 5074
7912.32443077 5075
7938.14578409 5076
7952.65822594 5077
7955.38767926 5078
7947.21292515 5079
7929.007085 5080
7901.9284617 5081
7870.84717028 5082
7843.24021538 5083
7826.63108252 5084
7828.43615501 5085
7849.45557613 5086
7879.29765582 5087
7906.51208082 5088
7919.66589295 5089
7910.5587961 5090
7885.11649177 5091
7853.12275949 5092
7824.34873013 5093
7807.94911746 5094
7805.26364801 5095
7812.18732452 5096
7824.50938831 5097
7838.00300104 5098
7846.85634474 5099
7842.61129294 5100
7816.56574018 5101
7760.03173157 5102
7670.26550811 5103
7570.10756847 5104
7489.25575153 5105
7457.37834376 5106
7501.30731201 5107
7612.54190981 5108
7758.44280514 5109
7905.94204821 5110
8022.22144349 5111
8089.62972894 5112
8115.15661521 5113
8108.03875261 5114
8077.50773871 5115
8032.80027189 5116
7983.20982929 5117
7938.04379898 5118
7906.59876745 5119
7896.9822183 5120
7903.06855705 5121
7909.32588411 5122
7900.06606693 5123
7859.81466669 5124
7785.9371557 5125
7695.92816494 5126
7609.02820293 5127
7544.47367528 5128
7516.46540621 5129
7519.15711156 5130
7541.70241827 5131
7573.26309061 5132
7603.78287172 5133
7632.0221951 5134
7662.31131069 5135
7699.07210304 5136
7746.56500517 5137
7800.31933843 5138
7842.80621445 5139
7855.42764534 5140
7819.59047574 5141
7726.08477544 5142
7601.00796306 5143
7478.76062043 5144
7393.73805992 5145
7376.86734535 5146
7422.5375747 5147
7503.23963961 5148
7591.17100086 5149
7658.83504229 5150
7693.32838799 5151
7702.34338777 5152
7695.12467452 5153
7680.91786322 5154
7667.83850524 5155
7660.01693793 5156
7660.71156625 5157
7673.17926754 5158
7699.92821563 5159
7736.2036916 5160
7773.18901255 5161
7802.01296958 5162
7813.92205294 5163
7804.78954278 5164
7776.58405604 5165
7731.69318229 5166
7672.50366686 5167
7603.8214583 5168
7538.26936029 5169
7490.0573431 5170
7473.4012115 5171
7499.94170336 5172
7558.68603828 5173
7626.91775959 5174
7681.80581153 5175
7701.03767459 5176
7680.16224608 5177
7636.40729436 5178
7588.31153073 5179
7554.4260394 5180
7547.36355212 5181
7562.25818638 5182
7591.04066972 5183
7625.63778796 5184
7658.32591237 5185
7684.18452185 5186
7699.60935138 5187
7701.00299367 5188
7685.00819299 5189
7655.17664225 5190
7622.72183373 5191
7599.26778732 5192
7596.44050884 5193
7620.0541349 5194
7660.48622204 5195
7705.57226166 5196
7743.13660218 5197
7762.51345831 5198
7763.60677236 5199
7750.80647765 5200
7728.52351114 5201
7701.22238138 5202
7674.4813297 5203
7654.99552988 5204
7649.51738488 5205
7664.78477777 5206
7701.58267927 5207
7746.64938204 5208
7784.68737858 5209
7800.37891328 5210
7781.75340293 5211
7737.35359617 5212
7683.46419586 5213
7636.40444599 5214
7611.77295804 5215
7611.07690872 5216
7623.21441381 5217
7636.62199316 5218
7639.76351454 5219
7627.84864591 5220
7610.15213643 5221
7597.7240408 5222
7601.62976422 5223
7630.03412102 5224
7675.71463745 5225
7726.36799099 5226
7769.66833932 5227
7793.90874588 5228
7797.24945864 5229
7785.64630568 5230
7765.27463222 5231
7742.31347678 5232
7722.1846222 5233
7708.9296316 5234
7706.44938764 5235
7718.65109508 5236
7746.80716308 5237
7780.2044978 5238
7804.71188019 5239
7806.17358294 5240
7771.92590281 5241
7708.60448053 5242
7636.16270967 5243
7574.85065621 5244
7544.76077278 5245
7553.58304302 5246
7589.45042346 5247
7638.75131794 5248
7687.85139921 5249
7725.86752879 5250
7752.57670017 5251
7770.32757789 5252
7781.46982943 5253
7788.27926333 5254
7792.20966583 5255
7794.22657192 5256
7795.29149273 5257
7796.38051383 5258
7798.97990622 5259
7805.26671324 5260
7817.4695581 5261
7837.82243252 5262
7866.04206567 5263
7893.71992136 5264
7910.79624488 5265
7907.19201863 5266
7874.41911138 5267
7817.58988226 5268
7748.65896746 5269
7679.65400748 5270
7622.43555257 5271
7583.09616515 5272
7561.10016001 5273
7555.54557291 5274
7565.52398935 5275
7589.3510921 5276
7623.25138392 5277
7663.09437605 5278
7704.74468009 5279
7744.03646172 5280
7776.66014317 5281
7798.24612162 5282
7804.41052499 5283
7791.16868588 5284
7763.27814979 5285
7733.94212929 5286
7716.73972035 5287
7725.2333731 5288
7764.2738131 5289
7819.3810705 5290
7873.44918411 5291
7909.33795654 5292
7913.85598568 5293
7895.76266188 5294
7871.36046496 5295
7856.99634076 5296
7867.97666686 5297
7902.41583569 5298
7944.60800606 5299
7978.4257903 5300
7987.79794223 5301
7965.81337773 5302
7922.18124427 5303
7868.3829628 5304
7815.92857186 5305
7774.73609211 5306
7747.61097554 5307
7735.39512055 5308
7738.93519099 5309
7758.72427506 5310
7791.01274917 5311
7829.24866274 5312
7866.81583626 5313
7897.13449548 5314
7916.32676921 5315
7924.50969857 5316
7922.12490951 5317
7909.61265365 5318
7888.51361407 5319
7864.22161574 5320
7842.98378127 5321
7831.06352345 5322
7833.89911026 5323
7849.34632737 5324
7871.21984241 5325
7893.28157014 5326
7909.43499477 5327
7918.64496517 5328
7925.92363539 5329
7936.65412693 5330
7956.22667874 5331
7987.11204625 5332
8023.73060038 5333
8059.11921919 5334
8086.29719448 5335
8099.26651248 5336
8098.91517758 5337
8089.04537265 5338
8073.47860638 5339
8056.06204577 5340
8041.0047693 5341
8032.86316941 5342
8036.21592888 5343
8055.62797149 5344
8090.01331487 5345
8126.12409338 5346
8149.10196448 5347
8144.05380808 5348
8100.79909474 5349
8034.14753345 5350
7967.13750718 5351
7922.87462902 5352
7922.89087132 5353
7965.06607283 5354
8029.33623915 5355
8095.14859228 5356
8142.0403131 5357
8160.3925974 5358
8158.8395842 5359
8147.78533395 5360
8137.66056534 5361
8136.60094162 5362
8143.52757282 5363
8155.06707466 5364
8167.83582031 5365
8179.06750464 5366
8192.45215689 5367
8215.49324847 5368
8255.76763487 5369
8320.53855285 5370
8404.28779791 5371
8484.80572628 5372
8538.70951662 5373
8542.56957007 5374
8485.23517634 5375
8392.36004097 5376
8296.50319023 5377
8230.30177687 5378
8221.74299981 5379
8263.70360155 5380
8333.18437929 5381
8407.05104506 5382
8462.76750548 5383
8492.91866403 5384
8505.32251912 5385
8508.48979277 5386
8510.92768503 5387
8516.09333239 5388
8516.10251806 5389
8501.50526685 5390
8462.83571119 5391
8394.86275295 5392
8315.40595884 5393
8250.08984717 5394
8224.60650121 5395
8262.53586638 5396
8355.25300172 5397
8469.3946081 5398
8570.89169824 5399
8625.87237074 5400
8621.25372037 5401
8578.87876731 5402
8523.98029997 5403
8481.84903708 5404
8471.78024224 5405
8489.39543989 5406
8524.49513669 5407
8566.85247924 5408
8606.91612822 5409
8642.0201786 5410
8673.46435262 5411
8702.59956882 5412
8730.82592093 5413
8761.2724607 5414
8799.23867705 5415
8850.17014985 5416
8919.52064197 5417
9006.65728496 5418
9093.75603409 5419
9159.94686927 5420
9184.31245152 5421
9150.7545441 5422
9076.62791254 5423
8993.42489074 5424
8932.75568305 5425
8925.00905727 5426
8974.38223932 5427
9060.58665973 5428
9162.35259823 5429
9258.42105319 5430
9335.57035985 5431
9397.01674464 5432
9447.98441734 5433
9493.71009083 5434
9537.92270447 5435
9577.04162853 5436
9605.28626664 5437
9616.85589224 5438
9606.93530324 5439
9583.16058613 5440
9561.6810734 5441
9558.84822853 5442
9590.98269294 5443
9671.19755388 5444
9807.84562265 5445
10008.9150101 5446
10282.4170047 5447
10684.2439939 5448
11430.3691993 5449
12770.6107203 5450
14955.3108879 5451
18188.0782326 5452
22284.752178 5453
26870.3057974 5454
31567.5971361 5455
36006.5554277 5456
40018.4837406 5457
43649.1927509 5458
46954.9511262 5459
49991.866493 5460
52736.7730337 5461
54981.5472478 5462
56491.4080014 5463
57031.073741 5464
56421.1499071 5465
54792.3408169 5466
52381.9825277 5467
49427.9876101 5468
46167.7508725 5469
42824.263193 5470
39609.6172458 5471
36736.0728688 5472
34414.4985829 5473
32732.0490838 5474
31573.5455096 5475
30804.9259557 5476
30291.84475 5477
29917.2372169 5478
29628.8333936 5479
29389.3184231 5480
29161.3063005 5481
28906.3990911 5482
28577.5591536 5483
28123.1002885 5484
27491.1861767 5485
26631.7878358 5486
25550.9711669 5487
24318.9752559 5488
23009.6636711 5489
21696.9964683 5490
20435.2551572 5491
19229.440347 5492
18077.0007168 5493
16975.3849897 5494
15925.4381274 5495
14947.9844706 5496
14071.1451937 5497
13323.0972806 5498
12729.6917227 5499
12279.2804024 5500
11930.2643676 5501
11640.1373215 5502
11366.6365275 5503
11092.4529447 5504
10842.6372442 5505
10646.3899851 5506
10532.9620578 5507
10519.6617144 5508
10577.9553981 5509
10668.2918303 5510
10751.0542435 5511
10789.9364038 5512
10780.2024389 5513
10734.3461251 5514
10665.0613288 5515
10584.940485 5516
10502.8050549 5517
10423.1227682 5518
10350.1292862 5519
10288.0625145 5520
10241.0575965 5521
10212.9798081 5522
10207.6563416 5523
10228.9229919 5524
10278.6664669 5525
10347.4333918 5526
10421.6813899 5527
10487.8307782 5528
10532.8386501 5529
10552.130814 5530
10547.7889559 5531
10522.0809861 5532
10477.3419029 5533
10420.721041 5534
10367.2838625 5535
10332.8610983 5536
10333.3026698 5537
10377.6583822 5538
10449.8594143 5539
10528.030731 5540
10590.2651046 5541
10617.1607388 5542
10611.6595969 5543
10588.353028 5544
10561.955997 5545
10546.861749 5546
10548.1172364 5547
10560.5230617 5548
10578.3461969 5549
10595.8575941 5550
10610.233419 5551
10625.4620393 5552
10646.5052288 5553
10678.3330796 5554
10723.853864 5555
10774.9066446 5556
10819.6403386 5557
10846.1778963 5558
10843.9210535 5559
10819.932049 5560
10794.0744976 5561
10786.523621 5562
10817.1337121 5563
10886.3616159 5564
10965.4065715 5565
11023.0133239 5566
11027.8838694 5567
10963.4526957 5568
10861.7937483 5569
10765.0258052 5570
10715.3258709 5571
10748.2420819 5572
10847.7507707 5573
10973.7783988 5574
11086.0634232 5575
11145.7778027 5576
11146.8627489 5577
11115.3528596 5578
11078.6606188 5579
11064.1481648 5580
11087.1060021 5581
11138.0293568 5582
11204.3596378 5583
11273.5275389 5584
11334.5920819 5585
11384.1884533 5586
11421.1285137 5587
11444.2191666 5588
11452.8805503 5589
11453.4315872 5590
11456.5150361 5591
11472.8601268 5592
11512.9206803 5593
11576.2273287 5594
11648.1342204 5595
11713.0363312 5596
11755.3148953 5597
11765.9860034 5598
11754.3897398 5599
11733.0179876 5600
11714.3719615 5601
11709.2086946 5602
11717.1781781 5603
11733.6104155 5604
11753.821946 5605
11773.3065138 5606
11790.5593768 5607
11806.5381944 5608
11822.276033 5609
11838.8081056 5610
11857.5238215 5611
11880.3861549 5612
11909.4230356 5613
11946.6603865 5614
11991.4667528 5615
12033.4105667 5616
12059.8047076 5617
12057.9474008 5618
12017.8061513 5619
11952.3132561 5620
11886.0965355 5621
11843.9018018 5622
11849.5823045 5623
11904.0273796 5624
11984.0359835 5625
12065.2540891 5626
12123.3581798 5627
12145.7331324 5628
12145.2100708 5629
12137.9770175 5630
12140.2329657 5631
12163.6309748 5632
12197.8657599 5633
12226.0187888 5634
12231.1513346 5635
12198.3310945 5636
12136.0097411 5637
12067.7246155 5638
12017.2810976 5639
12007.9399989 5640
12040.1874204 5641
12084.6387692 5642
12109.8588206 5643
12084.4104742 5644
11994.9640645 5645
11878.0552136 5646
11778.7524294 5647
11742.1637655 5648
11804.0355213 5649
11941.989299 5650
12111.4312824 5651
12267.6859617 5652
12368.126314 5653
12403.0262407 5654
12388.8786351 5655
12342.9170222 5656
12282.3593526 5657
12222.4113606 5658
12175.0043267 5659
12151.7844672 5660
12164.4101689 5661
12216.5068467 5662
12284.0526662 5663
12337.0566293 5664
12345.5002269 5665
12284.9741366 5666
12175.1272934 5667
12056.411473 5668
11969.4276987 5669
11952.9581975 5670
12006.060569 5671
12089.6433546 5672
12163.0393528 5673
12185.7567162 5674
12143.2466627 5675
12071.6376778 5676
12012.9524703 5677
12009.2457368 5678
12087.9491262 5679
12214.5940515 5680
12338.3288647 5681
12408.2646385 5682
12379.9926495 5683
12272.7143604 5684
12141.6137158 5685
12042.319936 5686
12028.8732307 5687
12107.6675945 5688
12230.9647214 5689
12348.0699257 5690
12408.3360986 5691
12383.425575 5692
12296.8823915 5693
12179.6161793 5694
12062.5667386 5695
11971.9904866 5696
11910.3330641 5697
11872.5121797 5698
11853.4339822 5699
11848.2962574 5700
11855.8074988 5701
11876.9982271 5702
11912.9442918 5703
11964.5334392 5704
12025.1573131 5705
12078.3000595 5706
12106.76201 5707
12093.3462594 5708
12032.3591162 5709
11949.3369132 5710
11875.0815488 5711
11840.4122246 5712
11869.4496308 5713
11946.374395 5714
12040.6441313 5715
12121.6747305 5716
12160.8054143 5717
12157.5602986 5718
12132.78352 5719
12107.8553007 5720
12103.8953014 5721
12126.9914658 5722
12160.6647137 5723
12186.5675041 5724
12186.3440638 5725
12149.6596664 5726
12091.1296235 5727
12030.2119747 5728
11986.3726402 5729
11975.6114037 5730
11990.0873618 5731
12011.965689 5732
12023.364296 5733
12007.4712255 5734
11966.2502859 5735
11917.5416842 5736
11879.6935304 5737
11870.8851769 5738
11895.5125767 5739
11934.8854707 5740
11968.1029866 5741
11974.2521081 5742
11941.2315599 5743
11887.7257145 5744
11839.1439333 5745
11820.9088854 5746
11854.3066554 5747
11928.6309649 5748
12018.3065338 5749
12097.6553354 5750
12141.9086496 5751
12144.7751712 5752
12117.1271464 5753
12070.4926741 5754
12016.4772879 5755
11973.8269829 5756
11974.3554156 5757
12051.2874576 5758
12237.875762 5759
12556.484037 5760
12987.7448772 5761
13502.2778575 5762
14070.6873407 5763
14664.7141974 5764
15265.8644651 5765
15860.5503477 5766
16435.2196345 5767
16976.0548194 5768
17463.4902597 5769
17872.2354947 5770
18176.7358689 5771
18351.4943576 5772
18380.1421092 5773
18264.1907424 5774
18007.2318043 5775
17612.8598129 5776
17100.4695992 5777
16554.2998362 5778
16075.2421597 5779
15764.252396 5780
15710.7769937 5781
15899.1665663 5782
16257.6387901 5783
16713.8448991 5784
17196.5752346 5785
17664.0137657 5786
18105.1041559 5787
18510.2397066 5788
18869.8159826 5789
19175.4938257 5790
19421.5629764 5791
19602.6267092 5792
19713.2875244 5793
19745.8520658 5794
19682.7233768 5795
19503.6355931 5796
19188.319142 5797
18721.8497012 5798
18140.3932538 5799
17508.4318256 5800
16890.7872837 5801
16350.8602633 5802
15913.7169759 5803
15563.1202807 5804
15280.7741541 5805
15048.3959893 5806
14850.6769859 5807
14678.6302883 5808
14524.0577767 5809
14378.7651254 5810
14236.7806626 5811
14101.9465765 5812
13980.7996896 5813
13879.8815956 5814
13804.2606705 5815
13744.6921373 5816
13683.8731286 5817
13604.4080989 5818
13489.4415463 5819
13337.2410913 5820
13162.5531983 5821
12980.9608386 5822
12808.0209249 5823
12653.3323769 5824
12513.827796 5825
12384.8254776 5826
12261.6336206 5827
12141.8743932 5828
12033.3101809 5829
11946.4956095 5830
11891.990271 5831
11878.2107214 5832
11892.9392884 5833
11912.4344496 5834
11912.8129298 5835
11870.9580399 5836
11784.3449221 5837
11672.5884002 5838
11556.429854 5839
11456.5628226 5840
11386.7729351 5841
11346.4137463 5842
11333.0315641 5843
11344.1741638 5844
11375.5985144 5845
11415.4020722 5846
11449.6265758 5847
11464.3016211 5848
11447.379729 5849
11404.7684752 5850
11352.1392574 5851
11305.2662506 5852
11279.4359648 5853
11277.4762113 5854
11289.2268929 5855
11303.9056137 5856
11310.7626314 5857
11303.5493488 5858
11285.0706341 5859
11259.2201355 5860
11229.8893843 5861
11200.8702836 5862
11175.5375542 5863
11157.1604408 5864
11149.0116398 5865
11153.8594003 5866
11170.0446707 5867
11193.6191346 5868
11220.6120367 5869
11247.1366482 5870
11271.3663211 5871
11293.5015782 5872
11313.8305113 5873
11332.6422601 5874
11350.1736645 5875
11366.5668726 5876
11381.9520058 5877
11396.4612988 5878
11409.1925272 5879
11415.3117347 5880
11409.054102 5881
11384.6502352 5882
11337.1875648 5883
11268.6613162 5884
11184.3924715 5885
11089.7271537 5886
10990.1895173 5887
10894.7525419 5888
10815.5606963 5889
10764.8823118 5890
10754.8801144 5891
10787.6919792 5892
10848.002625 5893
10918.7328834 5894
10982.7933477 5895
11026.9751458 5896
11051.5313679 5897
11059.6153406 5898
11054.3943144 5899
11038.7995481 5900
11014.1388165 5901
10981.0027736 5902
10939.9793141 5903
10891.8396119 5904
10840.3968721 5905
10792.0229852 5906
10753.1673707 5907
10730.2262814 5908
10725.5475825 5909
10735.1197541 5910
10754.3753587 5911
10778.739866 5912
10803.8468992 5913
10825.9622971 5914
10841.4728723 5915
10846.768749 5916
10838.7016134 5917
10817.1287157 5918
10783.0708485 5919
10737.5511906 5920
10681.9817375 5921
10623.2631431 5922
10572.4049624 5923
10540.5217189 5924
10538.4964161 5925
10566.1666362 5926
10608.0306663 5927
10647.4387329 5928
10667.7337179 5929
10657.7283923 5930
10620.8464414 5931
10562.9234362 5932
10489.8036853 5933
10407.8037371 5934
10325.7718916 5935
10253.4173881 5936
10200.4612975 5937
10175.8499175 5938
10179.380645 5939
10204.8990492 5940
10246.142844 5941
10296.7686957 5942
10347.8388558 5943
10387.2871755 5944
10402.8396277 5945
10382.263315 5946
10322.9926485 5947
10244.5352888 5948
10169.477333 5949
10120.4270085 5950
10113.7203058 5951
10137.0971508 5952
10170.1484512 5953
10192.4499196 5954
10186.090993 5955
10157.3046477 5956
10125.7132865 5957
10111.1032344 5958
10132.3328997 5959
10185.4270225 5960
10242.8852219 5961
10276.1051028 5962
10256.6263464 5963
10174.9158981 5964
10057.6251873 5965
9935.49290803 5966
9839.29518506 5967
9791.70606824 5968
9785.12400204 5969
9804.87935657 5970
9836.29099186 5971
9865.55047813 5972
9885.61777117 5973
9892.56975435 5974
9882.49173922 5975
9851.91729924 5976
9805.39581279 5977
9754.34101138 5978
9710.40441049 5979
9685.13698727 5980
9683.03450707 5981
9697.47560045 5982
9720.8582437 5983
9745.57230545 5984
9765.21389219 5985
9777.04096557 5986
9778.98195784 5987
9768.97162881 5988
9745.65558661 5989
9712.01388987 5990
9672.63090206 5991
9632.10138842 5992
9594.73187823 5993
9561.01485224 5994
9528.77697744 5995
9495.7901107 5996
9459.92055197 5997
9422.77877703 5998
9390.74388739 5999
9370.51463074 6000
9368.77421568 6001
9385.7789808 6002
9406.54174994 6003
9413.84225095 6004
9390.43851501 6005
9325.37884068 6006
9237.01521637 6007
9152.23892627 6008
9097.97632903 6009
9097.55971054 6010
9139.67805365 6011
9193.72691985 6012
9228.85802083 6013
9215.4344448 6014
9153.25211454 6015
9071.99343049 6016
9002.70481143 6017
8976.27550816 6018
9003.06688894 6019
9055.36842512 6020
9101.30135633 6021
9108.95891844 6022
9059.03330583 6023
8976.92449562 6024
8897.94078535 6025
8857.43660449 6026
8884.38368651 6027
8962.60622165 6028
9056.54306622 6029
9130.51144536 6030
9150.80179158 6031
9115.07842029 6032
9045.81186857 6033
8966.17732211 6034
8899.12301673 6035
8855.26658539 6036
8827.65891749 6037
8807.99168682 6038
8787.95663336 6039
8762.08912437 6040
8732.46736149 6041
8702.40476951 6042
8675.2176586 6043
8653.6039184 6044
8637.05296129 6045
8624.02360236 6046
8612.97054947 6047
8602.59512964 6048
8594.19262271 6049
8590.62778109 6050
8594.78816499 6051
8609.34001578 6052
8631.02326606 6053
8650.17857872 6054
8656.81498867 6055
8640.98978601 6056
8600.72999809 6057
8549.65072552 6058
8503.18947943 6059
8476.80867426 6060
8481.73335404 6061
8513.4631421 6062
8563.84515273 6063
8624.72369965 6064
8687.0119784 6065
8734.9734226 6066
8749.90644755 6067
8713.07298047 6068
8607.82069564 6069
8451.12678719 6070
8286.99496176 6071
8160.25110622 6072
8115.07430966 6073
8160.69453222 6074
8256.221354 6075
8356.83982252 6076
8417.70855319 6077
8411.96525751 6078
8359.96335729 6079
8289.71684372 6080
8229.28244908 6081
8201.18070432 6082
8199.8913698 6083
8211.08054692 6084
8220.38240203 6085
8214.69053787 6086
8193.7671898 6087
8164.89141539 6088
8135.44166582 6089
8112.65460099 6090
8100.04856462 6091
8097.28340634 6092
8103.8388179 6093
8119.16228875 6094
8139.26877479 6095
8153.8432988 6096
8151.87071388 6097
8122.31771308 6098
8060.33029663 6099
7982.25144798 6100
7908.9907107 6101
7861.49229032 6102
7856.90728452 6103
7887.06210801 6104
7933.45938769 6105
7977.54321989 6106
8001.96452563 6107
8006.57674985 6108
8003.86304154 6109
8006.61664861 6110
8027.31466561 6111
8065.48699036 6112
8103.92240929 6113
8124.27430874 6114
8108.2100564 6115
8048.90286876 6116
7966.19513282 6117
7883.72255805 6118
7825.15765807 6119
7808.70657145 6120
7828.59658224 6121
7872.50929536 6122
7928.10822325 6123
7983.36289601 6124
8029.01626116 6125
8057.2006799 6126
8060.0461505 6127
8030.23382567 6128
7971.07372115 6129
7895.36257785 6130
7816.25941133 6131
7746.83583251 6132
7693.6461373 6133
7653.04444318 6134
7620.49317161 6135
7591.4491758 6136
7564.29860298 6137
7545.71601054 6138
7543.83264243 6139
7566.79993525 6140
7618.88504592 6141
7683.63259342 6142
7737.69318563 6143
7757.66856696 6144
7723.06595041 6145
7644.50060961 6146
7551.32051928 6147
7473.17678411 6148
7438.70999396 6149
7449.80374834 6150
7480.23702789 6151
7502.41106421 6152
7488.88113387 6153
7431.76793863 6154
7359.10632931 6155
7302.80996576 6156
7294.85739578 6157
7353.20912155 6158
7448.94277233 6159
7543.31291698 6160
7597.50039221 6161
7579.70445629 6162
7502.67867961 6163
7396.52942907 6164
7291.45612556 6165
7216.03302987 6166
7177.42843609 6167
7167.99753818 6168
7179.78882509 6169
7204.79859844 6170
7233.79362278 6171
7256.0801786 6172
7260.85741557 6173
7237.3534366 6174
7182.53384053 6175
7109.52865897 6176
7033.51592705 6177
6969.70229693 6178
6929.54581659 6179
6910.13924782 6180
6905.15044532 6181
6908.2330398 6182
6913.24700532 6183
6915.5891505 6184
6911.32416797 6185
6896.51582508 6186
6867.69983252 6187
6828.64879022 6188
6788.68085429 6189
6757.28106297 6190
6743.72407659 6191
6748.51915831 6192
6760.64888916 6193
6768.28930405 6194
6759.62432111 6195
6729.23082378 6196
6686.41229195 6197
6642.55522678 6198
6609.06177277 6199
6594.18917142 6200
6592.8853937 6201
6596.59056096 6202
6596.73113731 6203
6585.77013712 6204
6564.51070861 6205
6537.72209046 6206
6510.20980774 6207
6486.48362272 6208
6466.02092065 6209
6444.15880107 6210
6416.09992534 6211
6377.17982134 6212
6329.25052967 6213
6283.30678664 6214
6251.04698864 6215
6244.17010442 6216
6267.14122095 6217
6306.71043806 6218
6346.94561189 6219
6371.88358636 6220
6369.89258098 6221
6348.66398619 6222
6321.25814168 6223
6300.76452731 6224
6298.30939711 6225
6308.46633996 6226
6317.55522618 6227
6311.81468182 6228
6278.37674063 6229
6220.53703048 6230
6155.40539349 6231
6100.55792385 6232
6073.3133696 6233
6076.13501441 6234
6089.95501788 6235
6093.99126359 6236
6067.45220262 6237
6001.26364992 6238
5915.84945964 6239
5836.23274983 6240
5787.48006963 6241
5787.11726338 6242
5818.29993728 6243
5854.41787103 6244
5868.80602896 6245
5838.33553781 6246
5770.20993015 6247
5686.94571223 6248
5611.21638616 6249
5564.70311927 6250
5550.75836338 6251
5557.01856595 6252
5570.59167614 6253
5578.69702807 6254
5575.70936797 6255
5566.35343665 6256
5556.17626719 6257
5550.7198396 6258
5552.13643761 6259
5554.11848342 6260
5549.05932204 6261
5529.33370169 6262
5490.00616613 6263
5438.15771809 6264
5384.22789738 6265
5338.67603936 6266
5310.71228247 6267
5299.1243629 6268
5297.5733908 6269
5299.67373323 6270
5299.28739737 6271
5294.65713249 6272
5287.68471805 6273
5280.38366028 6274
5274.70760688 6275
5269.70499009 6276
5260.37062557 6277
5241.39022564 6278
5207.45484552 6279
5157.49953067 6280
5100.545822 6281
5047.09767186 6282
5007.67524133 6283
4989.70911433 6284
4987.52551273 6285
4991.98963926 6286
4993.94505864 6287
4985.60697223 6288
4969.78810224 6289
4954.22434513 6290
4946.69352156 6291
4954.41260582 6292
4975.83820319 6293
5002.54374106 6294
5025.90580617 6295
5037.37033672 6296
5031.72794781 6297
5008.13419961 6298
4966.03338696 6299
4904.89263552 6300
4828.72253972 6301
4751.49467344 6302
4688.52463562 6303
4655.15781281 6304
4660.69427482 6305
4691.16600946 6306
4726.9998291 6307
4748.58357789 6308
4739.92074686 6309
4710.186691 6310
4679.19898651 6311
4666.85076235 6312
4691.10181175 6313
4743.63163366 6314
4797.38401035 6315
4824.84478153 6316
4799.24051904 6317
4718.4129482 6318
4609.11655961 6319
4499.80492749 6320
4418.89157685 6321
4382.97108276 6322
4385.46795429 6323
4417.11264854 6324
4468.61640646 6325
4529.03955472 6326
4581.93113063 6327
4609.65275355 6328
4594.53396962 6329
4524.5231016 6330
4421.32462691 6331
4319.1677753 6332
4252.36810753 6333
4251.59785403 6334
4306.30074077 6335
4380.119862 6336
4436.23556271 6337
4439.04095051 6338
4383.81150996 6339
4297.58189822 6340
4208.88390189 6341
4146.10182579 6342
4122.23167224 6343
4124.28688139 6344
4136.75969076 6345
4144.1175113 6346
4136.00350766 6347
4116.89106493 6348
4093.88986818 6349
4074.12119572 6350
4063.39028033 6351
4060.87863339 6352
4063.70567984 6353
4068.98197107 6354
4073.97297075 6355
4077.33901571 6356
4078.48135499 6357
4076.80764683 6358
4071.81338668 6359
4064.62631127 6360
4057.79135251 6361
4053.90557538 6362
4055.49042763 6363
4061.23752483 6364
4064.42967081 6365
4057.92815068 6366
4034.59975219 6367
3992.98185707 6368
3944.88858424 6369
3904.05089703 6370
3884.2264 6371
3894.27355152 6372
3923.33830867 6373
3955.60329496 6374
3975.22192999 6375
3968.22308732 6376
3934.0425211 6377
3877.88983994 6378
3805.00453662 6379
3721.17148137 6380
3639.21720331 6381
3576.97893324 6382
3552.43182998 6383
3582.80624758 6384
3662.20131527 6385
3758.185468 6386
3836.81117046 6387
3864.26943753 6388
3827.6910992 6389
3753.2909523 6390
3671.59695707 6391
3613.19285771 6392
3598.10809936 6393
3613.30118431 6394
3639.26652861 6395
3656.46272369 6396
3649.50149908 6397
3625.5493417 6398
3599.36249782 6399
3585.72729079 6400
3597.37869855 6401
3627.07884903 6402
3656.42691223 6403
3666.86866491 6404
3640.82749934 6405
3580.12365626 6406
3504.08744399 6407
3432.71222183 6408
3385.77902429 6409
3370.72972279 6410
3377.16519093 6411
3393.27623834 6412
3407.24814518 6413
3411.94100676 6414
3411.26047631 6415
3410.71279437 6416
3415.81442458 6417
3429.40758669 6418
3443.64607569 6419
3448.01070866 6420
3431.96128798 6421
3387.53616785 6422
3324.60263093 6423
3260.54095943 6424
3212.78738197 6425
3197.6001164 6426
3216.00892234 6427
3258.62778374 6428
3315.85111509 6429
3378.02146881 6430
3434.59942039 6431
3474.07961635 6432
3484.88985231 6433
3455.57791416 6434
3386.66006837 6435
3299.52621072 6436
3217.69621145 6437
3164.72565044 6438
3155.45830453 6439
3179.75789679 6440
3223.03476475 6441
3270.67106563 6442
3309.12268315 6443
3330.12363107 6444
3326.9865586 6445
3293.01253804 6446
3223.78749724 6447
3134.06123219 6448
3048.13876152 6449
2990.44230289 6450
2983.67366721 6451
3022.82303968 6452
3080.77804759 6453
3129.76313578 6454
3142.52349061 6455
3112.22676998 6456
3057.68356055 6457
2999.36244383 6458
2957.69889508 6459
2943.69720905 6460
2949.41641656 6461
2964.63956752 6462
2979.13186459 6463
2985.31369806 6464
2984.37222924 6465
2979.29751903 6466
2973.08518432 6467
2968.28742139 6468
2964.97364378 6469
2962.36240417 6470
2959.66771901 6471
2955.98244947 6472
2949.22783429 6473
2936.66817892 6474
2915.55608317 6475
2883.51097111 6476
2845.0334999 6477
2810.70326613 6478
2791.32945486 6479
2797.47482756 6480
2827.94553318 6481
2865.26243678 6482
2890.72290348 6483
2885.64577393 6484
2842.15757084 6485
2776.12067513 6486
2706.57363961 6487
2652.58872715 6488
2627.54925634 6489
2624.27212003 6490
2630.93460769 6491
2635.69151254 6492
2628.8950958 6493
2614.20605273 6494
2600.23939355 6495
2595.63322084 6496
2607.98794827 6497
2633.91416663 6498
2663.46641721 6499
2686.59569375 6500
2693.70677829 6501
2684.73888674 6502
2668.5100284 6503
2654.1896601 6504
2650.84343326 6505
2661.46714285 6506
2680.27781466 6507
2700.79631347 6508
2716.53840245 6509
2722.21426359 6510
2715.28587614 6511
2693.59605756 6512
2654.98154642 6513
2600.1281222 6514
2540.31297737 6515
2489.29720629 6516
2460.86531566 6517
2465.74017655 6518
2495.63880615 6519
2535.02131385 6520
2568.3047263 6521
2581.28011791 6522
2574.61631042 6523
2557.98615802 6524
2541.20315822 6525
2533.6467703 6526
2535.45186074 6527
2538.07585169 6528
2532.62611314 6529
2510.37337282 6530
2471.41077016 6531
2428.57431211 6532
2395.71514867 6533
2386.66608943 6534
2406.1611949 6535
2438.3230378 6536
2464.41812745 6537
2465.67915648 6538
2430.64486704 6539
2374.53295015 6540
2318.65537762 6541
2284.36178717 6542
2288.41905387 6543
2320.03895706 6544
2358.22483798 6545
2381.9251548 6546
2372.35625728 6547
2334.1489408 6548
2285.62725962 6549
2245.31615293 6550
2230.95911384 6551
2244.76844996 6552
2274.99558676 6553
2309.3771704 6554
2335.75834686 6555
2347.7310734 6556
2346.78864792 6557
2334.99977915 6558
2314.44500069 6559
2288.85325157 6560
2265.44572704 6561
2251.9021755 6562
2255.91460035 6563
2281.1309927 6564
2317.5100965 6565
2352.10427694 6566
2371.94436666 6567
2366.80948706 6568
2341.61272331 6569
2306.42642941 6570
2271.34524614 6571
2245.62490153 6572
2230.72598798 6573
2223.92896524 6574
2222.46949085 6575
2223.51458655 6576
2223.1673803 6577
2216.65689345 6578
2199.17785102 6579
2166.13379772 6580
2120.56398018 6581
2075.00002348 6582
2042.5870738 6583
2036.41255315 6584
2060.63845143 6585
2102.47673849 6586
2147.22641491 6587
2180.16409665 6588
2190.85767151 6589
2181.66180874 6590
2157.29661517 6591
2122.49086297 6592
2081.77722913 6593
2038.71877172 6594
1996.59641719 6595
1958.69690646 6596
1928.10000822 6597
1906.24041322 6598
1893.78724106 6599
1891.40810763 6600
1899.56976423 6601
1916.05905638 6602
1936.74986545 6603
1957.46799446 6604
1974.15706261 6605
1986.05364324 6606
1995.92820553 6607
2006.72985828 6608
2021.35797037 6609
2039.02940513 6610
2053.00751185 6611
2056.00059544 6612
2040.72141675 6613
2005.31865151 6614
1961.43537855 6615
1922.79216564 6616
1903.1333169 6617
1910.78195147 6618
1932.82834874 6619
1951.15621505 6620
1947.61701687 6621
1908.16151919 6622
1844.39518244 6623
1777.79621393 6624
1729.90201861 6625
1720.0924941 6626
1745.22140792 6627
1788.8768211 6628
1834.44779954 6629
1865.78246644 6630
1875.77246477 6631
1865.2884915 6632
1835.47544623 6633
1787.63923402 6634
1729.42030448 6635
1676.79157555 6636
1646.32127508 6637
1654.50767771 6638
1705.1118693 6639
1776.65681114 6640
1844.66291272 6641
1884.60999059 6642
1880.85002574 6643
1844.73687002 6644
1792.74857481 6645
1741.39384108 6646
1704.24269561 6647
1680.72706206 6648
1666.06078844 6649
1655.44951372 6650
1644.56124595 6651
1632.64392421 6652
1620.58871992 6653
1609.29741032 6654
1599.78188649 6655
1594.42926018 6656
1596.57833628 6657
1609.59343263 6658
1636.54218937 6659
1673.29146797 6660
1708.3431342 6661
1729.84598447 6662
1726.10265368 6663
1695.16251392 6664
1649.80942111 6665
1604.0705933 6666
1571.96957758 6667
1561.0366284 6668
1564.08678683 6669
1571.90131682 6670
1575.24500173 6671
1568.20344632 6672
1556.43291446 6673
1548.1086507 6674
1551.42115684 6675
1571.9917527 6676
1601.48926325 6677
1626.87134052 6678
1635.06877483 6679
1615.10667385 6680
1574.22088263 6681
1528.95340192 6682
1495.95303527 6683
1490.68147891 6684
1510.9388866 6685
1541.16791477 6686
1565.45454896 6687
1568.37611492 6688
1548.95288652 6689
1522.1860581 6690
1503.9291925 6691
1509.88031947 6692
1543.04344102 6693
1585.79961644 6694
1618.60887264 6695
1621.92849104 6696
1586.57691703 6697
1528.49285752 6698
1467.36943632 6699
1422.93744164 6700
1408.8514261 6701
1416.29763053 6702
1431.27549227 6703
1439.75465413 6704
1430.58001522 6705
1409.0364491 6706
1386.21938999 6707
1373.25298551 6708
1379.63272222 6709
1400.08296507 6710
1421.51408488 6711
1430.7425334 6712
1415.5265314 6713
1378.21783579 6714
1332.47794504 6715
1292.2909468 6716
1271.32411459 6717
1273.47940733 6718
1291.69168667 6719
1318.29856381 6720
1345.66064899 6721
1368.62981395 6722
1386.12995696 6723
1397.4574696 6724
1401.90976352 6725
1399.28841404 6726
1390.61226942 6727
1377.08148425 6728
1359.89757872 6729
1340.30739067 6730
1319.70991781 6731
1299.54198768 6732
1281.24232117 6733
1265.78629231 6734
1251.57081248 6735
1236.10417835 6736
1216.88912446 6737
1192.29176348 6738
1168.14731828 6739
1154.11087962 6740
1159.88720538 6741
1194.14535504 6742
1250.69034209 6743
1312.29800591 6744
1361.45162041 6745
1381.14377447 6746
1368.3517355 6747
1334.94308707 6748
1293.53103119 6749
1256.64988708 6750
1230.90840338 6751
1213.8473423 6752
1202.23679571 6753
1192.84669403 6754
1183.55512268 6755
1174.71465929 6756
1167.0122383 6757
1161.13560567 6758
1157.66254028 6759
1156.80357773 6760
1158.69269763 6761
1163.46536634 6762
1170.7222669 6763
1177.41313648 6764
1179.66071473 6765
1173.5785863 6766
1156.20637335 6767
1131.65287474 6768
1107.27912749 6769
1090.47926555 6770
1087.98199823 6771
1098.35770912 6772
1114.7684325 6773
1130.26674115 6774
1138.11210284 6775
1136.17418947 6776
1126.68111239 6777
1112.03544103 6778
1094.65852423 6779
1077.55976378 6780
1064.53508255 6781
1059.44341913 6782
1066.1201611 6783
1084.6980403 6784
1108.17975358 6785
1128.7439193 6786
1138.55736631 6787
1132.87302041 6788
1115.60519129 6789
1092.17923696 6790
1068.03091286 6791
1047.91981148 6792
1033.76322884 6793
1026.74539158 6794
1028.05219334 6795
1038.17532491 6796
1053.28555507 6797
1067.89175768 6798
1076.48789946 6799
1074.41154809 6800
1065.11335142 6801
1056.53658643 6802
1056.68955313 6803
1072.95317986 6804
1102.814515 6805
1135.98039751 6806
1161.92700264 6807
1170.36688178 6808
1158.12927058 6809
1129.91035924 6810
1090.82067258 6811
1045.98874404 6812
1000.90014877 6813
961.593471556 6814
934.165965563 6815
924.709728096 6816
935.363151568 6817
959.487632282 6818
989.252428811 6819
1016.81022303 6820
1036.49601486 6821
1049.69695458 6822
1059.21764318 6823
1067.86853142 6824
1077.36860049 6825
1084.26666145 6826
1083.57911316 6827
1070.31221521 6828
1040.74624439 6829
1000.16379908 6830
957.708698057 6831
922.559782251 6832
903.136399678 6833
899.528987655 6834
906.764707818 6835
919.788566244 6836
933.682973767 6837
946.10354421 6838
956.896748998 6839
965.978500722 6840
973.218350719 6841
977.031359609 6842
974.110424895 6843
961.043215688 6844
934.496974614 6845
897.343993852 6846
862.719011532 6847
844.745541159 6848
857.53856097 6849
905.024480102 6850
967.317398742 6851
1021.10147234 6852
1043.01049216 6853
1019.34836621 6854
968.852943817 6855
917.0737471 6856
889.616105479 6857
905.040761508 6858
947.406916839 6859
990.252355728 6860
1007.0530073 6861
976.212918388 6862
911.544850784 6863
842.253538587 6864
797.671560477 6865
804.264711 6866
857.05696345 6867
931.894146166 6868
1004.2961735 6869
1050.69338239 6870
1064.08611423 6871
1051.48738904 6872
1020.36667969 6873
978.204384211 6874
932.35884656 6875
890.042449653 6876
858.475211903 6877
844.785496943 6878
849.080413207 6879
860.191892639 6880
865.913509135 6881
854.046021041 6882
819.697188482 6883
774.305665833 6884
731.542406093 6885
705.10736117 6886
703.522635627 6887
718.888516886 6888
740.051265185 6889
755.832257205 6890
758.31583066 6891
754.446736844 6892
755.39130893 6893
772.341328545 6894
813.655081376 6895
869.082948685 6896
920.888804537 6897
951.276781703 6898
945.010776188 6899
911.763563336 6900
875.132963306 6901
858.919708937 6902
885.240998468 6903
950.401350941 6904
1030.84750354 6905
1102.46602999 6906
1141.75862506 6907
1141.80003014 6908
1112.99916478 6909
1066.60036128 6910
1013.79399084 6911
961.99465977 6912
913.234803685 6913
869.141128601 6914
831.339174829 6915
800.895374231 6916
777.783129911 6917
761.849219934 6918
752.939540651 6919
750.509958724 6920
752.962516908 6921
758.518802813 6922
765.397465423 6923
772.147525982 6924
778.590291235 6925
784.850448064 6926
791.052784704 6927
797.10248584 6928
801.718050694 6929
803.216098513 6930
799.909739676 6931
790.571220092 6932
777.560863074 6933
764.921727434 6934
756.714903942 6935
756.54445343 6936
762.692145106 6937
770.040460842 6938
773.406410702 6939
768.042800299 6940
757.142918075 6941
750.74805992 6942
759.144681071 6943
792.187142023 6944
845.902645227 6945
900.248186001 6946
934.238131086 6947
927.125475569 6948
875.462806565 6949
802.821563669 6950
735.167015238 6951
698.438746855 6952
704.771509849 6953
736.98046362 6954
774.106287401 6955
795.149975311 6956
786.061120707 6957
753.126076468 6958
706.332915975 6959
655.691547909 6960
610.509029877 6961
577.182158628 6962
561.380707001 6963
568.786338472 6964
602.771200608 6965
653.582619257 6966
706.835235142 6967
748.107512968 6968
764.790106353 6969
759.032111271 6970
740.098043089 6971
717.318282193 6972
699.615121358 6973
690.933348864 6974
691.987943576 6975
703.44171274 6976
725.672849352 6977
753.931865345 6978
779.025725377 6979
791.595434286 6980
782.589015431 6981
752.736829606 6982
714.032638209 6983
679.116536036 6984
660.531209685 6985
663.68095092 6986
683.047508869 6987
712.180447076 6988
744.623923022 6989
775.199086093 6990
801.354315538 6991
820.854850776 6992
831.461476337 6993
831.125425034 6994
818.335456284 6995
791.669316234 6996
749.702567154 6997
693.568100033 6998
634.108426565 6999
584.487273934 7000
557.896442938 7001
563.794812992 7002
592.02340702 7003
626.013276094 7004
649.156873341 7005
647.449743976 7006
625.96252274 7007
598.188676119 7008
577.686073404 7009
576.767314245 7010
594.697001205 7011
623.061503998 7012
653.331507531 7013
677.261684205 7014
691.16053286 7015
694.874691367 7016
688.342653932 7017
671.607056589 7018
647.177467141 7019
620.084216084 7020
595.481717999 7021
578.472010578 7022
571.569766642 7023
573.827042433 7024
584.052241732 7025
601.037537926 7026
622.329404483 7027
643.284750455 7028
659.028831973 7029
664.6891884 7030
658.780758732 7031
647.740651612 7032
639.146709484 7033
640.591286104 7034
656.152110046 7035
678.875201485 7036
699.639658513 7037
709.306313324 7038
700.912731497 7039
676.783139078 7040
641.708007954 7041
600.487072396 7042
558.049474737 7043
520.015582733 7044
492.26033104 7045
480.67111049 7046
489.817511144 7047
513.80710139 7048
541.776917186 7049
562.811960153 7050
566.96806061 7051
555.260830594 7052
535.533027533 7053
515.74614397 7054
503.474122946 7055
499.772706359 7056
500.411725825 7057
500.99993628 7058
497.313326882 7059
489.51655248 7060
482.379245961 7061
480.898654066 7062
489.943854088 7063
508.499642024 7064
527.571183307 7065
537.578480661 7066
529.026817959 7067
501.469530113 7068
470.371485742 7069
452.841051161 7070
465.978083529 7071
516.071925533 7072
584.485673949 7073
649.050975688 7074
687.558863728 7075
686.305034477 7076
657.478414549 7077
618.185540899 7078
585.568967621 7079
572.484499508 7080
574.341433928 7081
582.125906159 7082
586.80434755 7083
581.433786335 7084
570.401671529 7085
561.905368574 7086
564.162500955 7087
583.590451877 7088
613.481205281 7089
641.335066111 7090
654.600520353 7091
642.310317366 7092
609.422696736 7093
570.016447822 7094
538.306728921 7095
527.514618808 7096
536.610710522 7097
554.090363643 7098
568.182404968 7099
567.575042744 7100
550.860915356 7101
525.941891014 7102
501.095439162 7103
484.461342646 7104
479.131608265 7105
482.159991587 7106
490.239560453 7107
500.032899319 7108
506.8427183 7109
503.899674346 7110
484.245471176 7111
440.967823965 7112
374.735439544 7113
301.051351547 7114
237.168424382 7115
200.361412749 7116
201.123445212 7117
232.777742837 7118
285.965947213 7119
351.308560695 7120
420.751270763 7121
490.63929577 7122
558.213730486 7123
620.709746328 7124
674.483773034 7125
712.134928696 7126
725.235963679 7127
705.339194092 7128
647.718882025 7129
568.77577862 7130
492.365015601 7131
442.40787082 7132
438.970129365 7133
472.964986275 7134
522.085694209 7135
563.906527544 7136
578.074377907 7137
565.530195702 7138
539.532460595 7139
513.520614929 7140
500.327230066 7141
503.955745918 7142
521.949562165 7143
551.699839392 7144
590.287864925 7145
628.773975939 7146
652.663485394 7147
647.216888136 7148
598.304290955 7149
511.286861721 7150
414.046348079 7151
335.786084561 7152
305.373519442 7153
330.902658151 7154
390.28238086 7155
458.996334366 7156
512.567321245 7157
536.872838921 7158
536.755183689 7159
519.090491371 7160
490.777369067 7161
459.802731673 7162
436.641673647 7163
432.146658346 7164
457.194906104 7165
514.151319381 7166
580.164962324 7167
627.685595114 7168
629.080891304 7169
568.058441396 7170
471.520689464 7171
376.681074197 7172
320.868476164 7173
331.791339258 7174
389.823791425 7175
460.863696277 7176
510.697214662 7177
511.233403578 7178
473.459966505 7179
423.580810473 7180
387.918620578 7181
389.393447139 7182
422.4468763 7183
467.535424193 7184
504.954700829 7185
516.674739063 7186
503.491995187 7187
477.778020818 7188
452.113921199 7189
438.277845224 7190
435.634529366 7191
434.07279234 7192
423.207826652 7193
393.265788298 7194
347.818191257 7195
303.029031282 7196
275.610920643 7197
281.827693368 7198
322.366836775 7199
379.763740628 7200
435.469570198 7201
471.08541416 7202
479.043038582 7203
467.374329891 7204
445.349192122 7205
422.234503277 7206
403.818026016 7207
389.65945482 7208
378.67337762 7209
369.768827157 7210
361.63108776 7211
352.454103664 7212
340.359404458 7213
323.463783348 7214
302.60516802 7215
286.163313154 7216
283.846132117 7217
305.40534116 7218
354.307538138 7219
412.058379226 7220
455.312260561 7221
460.613368171 7222
412.475842237 7223
330.694502256 7224
244.823709882 7225
184.560641418 7226
174.146476201 7227
206.926296527 7228
265.540547427 7229
332.534089672 7230
391.896261637 7231
438.281212562 7232
470.913682896 7233
489.031349746 7234
492.143049855 7235
482.237136311 7236
462.624265024 7237
436.644336368 7238
407.600565676 7239
378.174290238 7240
350.649485061 7241
327.315343551 7242
310.450074833 7243
301.961727537 7244
303.467325972 7245
316.585676515 7246
342.649814282 7247
376.673991571 7248
407.567987303 7249
423.929180085 7250
414.719617843 7251
382.199713808 7252
344.190125729 7253
319.498234265 7254
326.708649088 7255
368.41246896 7256
424.515127205 7257
473.08255976 7258
492.201995599 7259
473.084451722 7260
429.600229733 7261
377.940071801 7262
334.361964552 7263
308.338753392 7264
295.04367083 7265
287.822108552 7266
279.978614787 7267
267.271981264 7268
251.808064191 7269
236.709289218 7270
225.120573109 7271
219.16770547 7272
217.71863177 7273
218.992436299 7274
221.194572856 7275
223.635247256 7276
229.941647005 7277
244.813956983 7278
272.99077222 7279
316.720179667 7280
366.190968213 7281
407.9094334 7282
428.268826221 7283
417.098288944 7284
385.126390299 7285
350.852223921 7286
332.94539704 7287
346.809123302 7288
382.844643525 7289
420.182292706 7290
437.714632409 7291
417.205556512 7292
368.378543386 7293
316.18144676 7294
285.937979891 7295
300.634864885 7296
353.534699027 7297
418.50873633 7298
468.856738862 7299
