Jaz Data File
++++++++++++++++++++++++++++++++++++
Date: Sat Dec 06 17:03:59 2014
User: jaz
Dark Spectrum Present: Yes
Reference Spectrum Present: Yes
Processed Spectrum Present: No
Spectrometers: JAZA2310
Integration Time (usec): 3860 (JAZA2310)
Spectra Averaged: 1 (JAZA2310)
Boxcar Smoothing: 0 (JAZA2310)
Correct for Electrical Dark: Yes (JAZA2310)
Strobe/Lamp Enabled: No (JAZA2310)
Correct for Detector Non-linearity: Yes (JAZA2310)
Correct for Stray Light: No (JAZA2310)
Number of Pixels in Processed Spectrum: 2048
>>>>>Begin Processed Spectral Data<<<<<
W	D	R	S
188.301102	0.000000	0.000000	0.000000
188.764923	0.000000	0.000000	0.000000
189.228699	-20.970362	-85.906693	-3.730546
189.692459	-50.768921	-46.154892	-55.872540
190.156158	-30.901531	-16.358812	-23.588739
190.619812	-11.040870	-115.738510	-63.325169
191.083435	3.850164	-13.876443	-68.294075
191.547043	-11.040870	1.015307	-45.937134
192.010590	-43.317894	43.188339	-55.872540
192.474091	-8.558860	53.107075	-23.588739
192.937561	3.850164	40.708496	83.070702
193.401001	11.294272	15.903437	48.365391
193.864410	-3.594883	25.826595	78.114090
194.327759	58.418789	-28.771961	16.120964
194.791077	88.162361	55.586540	-23.588739
195.254349	112.937469	30.787687	-6.212488
195.717575	-3.594883	15.903437	8.677463
196.180786	68.334869	35.748230	18.601969
196.643951	21.218338	20.865225	-6.212488
197.107071	-1.113051	-36.221138	53.324471
197.570145	-18.487799	33.268078	-83.203606
198.033203	-30.901531	60.545017	-8.694399
198.496216	85.684250	-43.671261	-21.106064
198.959167	-53.252720	-46.154892	-40.969997
199.422089	-53.252720	-63.542992	16.120964
199.884979	-55.736755	-18.841150	-6.212488
200.347855	8.812963	-78.451164	-78.233292
200.810654	-11.040870	33.268078	-65.809639
201.273422	-11.040870	-58.574493	-105.574883
201.736160	38.581429	3.496945	13.639855
202.198853	-45.801373	-58.574493	-31.037258
202.661514	-25.935804	-66.027466	-13.658805
203.124130	-40.834385	50.627647	-6.212488
203.586700	-23.453032	-3.948147	11.158645
204.049240	-68.158394	3.496945	-16.141031
204.511734	-58.220898	-11.394178	-23.588739
204.974197	46.021179	-48.638626	-43.453514
205.436615	-13.523120	53.107075	-40.969997
205.899002	-43.317894	-68.512047	-127.954826
206.361343	-23.453032	-46.154892	3.714518
206.823654	-16.005474	-100.820747	65.720566
207.285919	-13.523120	-120.711906	3.714518
207.748123	6.331683	-38.704453	-11.176549
208.210327	-90.523872	-43.671261	-90.659729
208.672485	-70.642929	-46.154892	-50.904556
209.134583	-73.127708	-43.671261	-78.233292
209.596649	-53.252720	-21.323730	-36.003418
210.058670	26.179684	-46.154892	-60.840809
210.520676	-60.705147	-1.466300	-53.388493
210.982635	-40.834385	3.496945	-6.212488
211.444534	13.775479	48.147984	-38.486721
211.906403	-30.901531	35.748230	11.158645
212.368240	-23.453032	-66.027466	-70.778755
212.830048	-97.980942	60.545017	-70.778755
213.291779	33.620987	-78.451164	-130.442062
213.753494	-97.980942	-85.906693	-31.037258
214.215179	-65.673828	-38.704453	50.845047
214.676819	-38.350979	-6.430098	-3.730546
215.138412	-73.127708	-33.738064	-118.007065
215.599960	-1.113051	-26.289066	-16.141031
216.061493	-110.411629	-3.948147	13.639855
216.522949	-38.350979	-63.542992	-58.356552
216.984406	-90.523872	-46.154892	-55.872540
217.445801	-6.076819	23.346029	-13.658805
217.907166	-63.189365	-70.996605	-50.904556
218.368484	-45.801373	-28.771961	-26.071383
218.829773	-68.158394	-73.481392	-33.520218
219.291031	-100.466896	-36.221138	-21.106064
219.752228	26.179684	-98.334778	-1.248708
220.213379	-100.466896	-1.466300	-1.248708
220.674500	-88.038345	3.496945	-70.778755
221.135574	3.850164	-6.430098	-113.033890
221.596634	36.101257	-46.154892	45.885632
222.057648	-28.418549	-18.841150	-53.388493
222.518600	6.331683	-16.358812	-36.003418
222.979553	-40.834385	8.459772	-103.088707
223.440430	-1.113051	-75.966293	-98.116829
223.901276	-53.252720	-6.430098	-90.659729
224.362076	-8.558860	-56.090332	-105.574883
224.822845	-63.189365	-43.671261	-40.969997
225.283569	-97.980942	-41.187870	-31.037258
225.744278	-60.705147	30.787687	3.714518
226.204910	6.331683	-13.876443	-78.233292
226.665512	-38.350979	3.496945	-33.520218
227.126114	16.256447	-33.738064	-43.453514
227.586639	-80.582550	10.941098	-8.694399
228.047119	-85.553062	-46.154892	-11.176549
228.507568	-75.612602	-51.122467	-75.748291
228.967972	-13.523120	-51.122467	-100.602646
229.428345	-58.220898	3.496945	-16.141031
229.888687	-6.076819	-58.574493	21.082733
230.348984	55.939449	-100.820747	-1.248708
230.809219	-60.705147	50.627647	-16.141031
231.269440	-50.768921	33.268078	-45.937134
231.729614	-100.466896	-98.334778	-60.840809
232.189758	-65.673828	-23.806414	-48.420860
232.649841	53.459999	-53.606281	-1.248708
233.109894	3.850164	1.015307	-55.872540
233.569901	-80.582550	-70.996605	-43.453514
234.029892	-60.705147	-46.154892	-103.088707
234.489822	-68.158394	-23.806414	-53.388493
234.949707	-63.189365	-48.638626	-28.554268
235.409561	-35.867680	-26.289066	-48.420860
235.869385	-28.418549	-78.451164	-13.658805
236.329163	-43.317894	-23.806414	-36.003418
236.788895	1.368541	-46.154892	-85.688789
237.248581	-38.350979	-26.289066	-13.658805
237.708237	-25.935804	-63.542992	-88.174202
238.167847	26.179684	30.787687	-18.623495
238.627441	-45.801373	48.147984	13.639855
239.086960	-63.189365	10.941098	-60.840809
239.546463	-105.438980	-13.876443	-18.623495
240.005920	-68.158394	-46.154892	-55.872540
240.465332	-25.935804	-51.122467	-50.904556
240.924698	11.294272	-6.430098	-70.778755
241.384033	-122.844856	-23.806414	-70.778755
241.843338	13.775479	15.903437	-63.325169
242.302597	-40.834385	-33.738064	-63.325169
242.761810	-48.285095	-38.704453	-78.233292
243.220993	-20.970362	5.978478	13.639855
243.680115	-30.901531	-75.966293	23.563530
244.139221	-90.523872	10.941098	13.639855
244.598282	-16.005474	-33.738064	-23.588739
245.057297	1.368541	-75.966293	-55.872540
245.516266	-8.558860	25.826595	-95.630981
245.975189	-1.113051	-61.058620	-16.141031
246.434082	-8.558860	58.065895	-53.388493
246.892944	3.850164	-36.221138	-78.233292
247.351761	21.218338	-23.806414	-68.294075
247.810516	-43.317894	-11.394178	-40.969997
248.269272	-93.009499	-68.512047	-45.937134
248.727951	-53.252720	-46.154892	-63.325169
249.186600	11.294272	-38.704453	-58.356552
249.645218	-55.736755	33.268078	85.548927
250.103790	26.179684	-46.154892	43.405899
250.562317	1.368541	-88.392120	-78.233292
251.020813	-65.673828	-43.671261	-55.872540
251.479279	-100.466896	-51.122467	-23.588739
251.937668	-28.418549	-46.154892	-40.969997
252.396057	-30.901531	-13.876443	-36.003418
252.854385	-8.558860	-13.876443	-23.588739
253.312683	-30.901531	-46.154892	-78.233292
253.770920	60.897896	-83.421501	-28.554268
254.229126	-11.040870	-36.221138	35.965824
254.687302	-38.350979	20.865225	-38.486721
255.145432	-50.768921	-98.334778	-40.969997
255.603500	-117.871269	-36.221138	-50.904556
256.061584	-35.867680	13.422318	-63.325169
256.519592	-55.736755	-1.466300	8.677463
256.977570	-80.582550	-66.027466	-6.212488
257.435455	8.812963	-53.606281	-26.071383
257.893372	-75.612602	-73.481392	13.639855
258.351196	-11.040870	8.459772	-36.003418
258.808990	-38.350979	-88.392120	-63.325169
259.266754	-8.558860	-23.806414	1.233025
259.724487	-16.005474	-16.358812	-130.442062
260.182190	6.331683	33.268078	-55.872540
260.639832	-38.350979	8.459772	-65.809639
261.097443	-78.097450	-88.392120	-75.748291
261.554993	31.140745	-11.394178	-118.007065
262.012512	-6.076819	-68.512047	-120.493874
262.469971	-93.009499	-21.323730	-113.033890
262.927429	-11.040870	-11.394178	-80.718391
263.384827	-3.594883	-70.996605	-83.203606
263.842194	-70.642929	-13.876443	-36.003418
264.299530	-75.612602	-8.912018	-38.486721
264.756805	-11.040870	-18.841150	40.925934
265.214050	-68.158394	-113.251907	-85.688789
265.671234	11.294272	-61.058620	-26.071383
266.128387	-11.040870	-75.966293	-73.263535
266.585510	-80.582550	-48.638626	13.639855
267.042572	-11.040870	-6.430098	13.639855
267.499573	-78.097450	8.459772	-100.602646
267.956604	-16.005474	-16.358812	-75.748291
268.413574	-28.418549	-21.323730	11.158645
268.870483	-20.970362	-58.574493	-36.003418
269.327362	-73.127708	-41.187870	-11.176549
269.784180	-20.970362	-68.512047	68.199501
270.240936	-43.317894	-48.638626	73.156937
270.697693	1.368541	-66.027466	26.044222
271.154419	-53.252720	-85.906693	-6.212488
271.611053	-68.158394	-90.877663	-26.071383
272.067688	1.368541	-16.358812	-28.554268
272.524292	-58.220898	-48.638626	-60.840809
272.980835	-3.594883	38.228416	-78.233292
273.437347	-100.466896	-68.512047	13.639855
273.893799	-40.834385	-48.638626	-63.325169
274.350250	-135.280899	-85.906693	-16.141031
274.806610	-55.736755	-13.876443	-3.730546
275.262939	-28.418549	-23.806414	-63.325169
275.719238	-85.553062	-3.948147	-40.969997
276.175507	-73.127708	-31.254961	-53.388493
276.631714	-63.189365	-23.806414	16.120964
277.087891	-50.768921	-78.451164	-23.588739
277.544067	21.218338	-58.574493	-33.520218
278.000122	-1.113051	-3.948147	-26.071383
278.456177	-95.495102	15.903437	-93.145233
278.912201	-95.495102	-41.187870	-83.203606
279.368164	-48.285095	-78.451164	28.524675
279.824097	-55.736755	-80.936279	13.639855
280.279968	16.256447	-11.394178	-40.969997
280.735840	38.581429	-48.638626	-40.969997
281.191620	-60.705147	-3.948147	-100.602646
281.647400	-38.350979	-11.394178	-60.840809
282.103149	-33.384621	-11.394178	-75.748291
282.558838	-6.076819	-73.481392	-132.929413
283.014465	-48.285095	-80.936279	-68.294075
283.470062	-1.113051	-93.363304	-16.141031
283.925629	-35.867680	-33.738064	-83.203606
284.381134	-25.935804	-70.996605	-31.037258
284.836639	-75.612602	18.384315	-58.356552
285.292053	-40.834385	13.422318	-3.730546
285.747467	3.850164	-13.876443	-100.602646
286.202820	-30.901531	-46.154892	-21.106064
286.658142	-55.736755	-1.466300	-45.937134
287.113434	-16.005474	-18.841150	-78.233292
287.568634	-85.553062	-48.638626	-16.141031
288.023804	-50.768921	-31.254961	-16.141031
288.478973	-23.453032	-43.671261	-75.748291
288.934113	-53.252720	-56.090332	-28.554268
289.389130	-30.901531	-11.394178	-26.071383
289.844208	-3.594883	-28.771961	-75.748291
290.299164	-13.523120	-83.421501	-98.116829
290.754089	-60.705147	-123.198845	-90.659729
291.208984	-125.331871	-31.254961	3.714518
291.663879	-73.127708	60.545017	-70.778755
292.118683	-20.970362	-68.512047	11.158645
292.573456	-43.317894	-1.466300	23.563530
293.028198	-65.673828	-3.948147	-45.937134
293.482849	-35.867680	-56.090332	-48.420860
293.937561	-50.768921	-3.948147	-63.325169
294.392151	-70.642929	-21.323730	-38.486721
294.846741	23.699129	-3.948147	-43.453514
295.301239	-73.127708	-13.876443	-63.325169
295.755737	-25.935804	5.978478	-50.904556
296.210175	-35.867680	-51.122467	-18.623495
296.664581	-25.935804	-41.187870	-58.356552
297.118958	-50.768921	-11.394178	-8.694399
297.573242	-38.350979	-1.466300	18.601969
298.027557	-63.189365	-115.738510	-38.486721
298.481812	-102.952950	25.826595	-33.520218
298.935974	-8.558860	13.422318	-60.840809
299.390137	-93.009499	40.708496	-53.388493
299.844238	-43.317894	-83.421501	-36.003418
300.298340	-40.834385	-48.638626	-33.520218
300.752350	3.850164	-61.058620	-18.623495
301.206360	28.660265	-103.306679	-53.388493
301.660278	8.812963	-58.574493	6.196043
302.114197	60.897896	-3.948147	-13.658805
302.568054	-1.113051	-100.820747	26.044222
303.021881	-100.466896	-61.058620	3.714518
303.475677	-105.438980	-80.936279	-103.088707
303.929413	-40.834385	-3.948147	-23.588739
304.383118	-16.005474	-51.122467	33.485542
304.836761	-102.952950	-36.221138	-115.520493
305.290375	-83.067757	-70.996605	-6.212488
305.743958	-145.231659	23.346029	-8.694399
306.197510	-83.067757	-108.279152	33.485542
306.650970	-60.705147	-61.058620	-48.420860
307.104431	-43.317894	-80.936279	-48.420860
307.557800	-137.768326	-33.738064	-85.688789
308.011169	-58.220898	-18.841150	-48.420860
308.464508	-65.673828	-41.187870	8.677463
308.917755	-33.384621	-21.323730	-1.248708
309.371063	-50.768921	-11.394178	-88.174202
309.824219	-40.834385	-31.254961	18.601969
310.277374	-60.705147	10.941098	-58.356552
310.730499	-25.935804	-63.542992	16.120964
311.183563	-70.642929	20.865225	-1.248708
311.636597	-35.867680	-3.948147	-11.176549
312.089569	3.850164	-36.221138	-55.872540
312.542511	-78.097450	1.015307	-1.248708
312.995422	36.101257	43.188339	-78.233292
313.448273	-11.040870	-21.323730	-73.263535
313.901093	-13.523120	-88.392120	23.563530
314.353882	-135.280899	-11.394178	-75.748291
314.806580	3.850164	-1.466300	-98.116829
315.259308	-58.220898	-26.289066	-50.904556
315.711975	-23.453032	-66.027466	50.845047
316.164581	-35.867680	-26.289066	-78.233292
316.617126	-28.418549	-53.606281	-73.263535
317.069672	-63.189365	-51.122467	3.714518
317.522156	-13.523120	-73.481392	-58.356552
317.974579	-80.582550	-73.481392	-40.969997
318.427002	-11.040870	-13.876443	-45.937134
318.879333	-55.736755	-68.512047	-53.388493
319.331665	-83.067757	-143.097885	-48.420860
319.783936	-38.350979	-1.466300	45.885632
320.236176	-30.901531	-21.323730	55.803921
320.688354	28.660265	-16.358812	-50.904556
321.140503	-23.453032	33.268078	18.601969
321.592651	-33.384621	-26.289066	6.196043
322.044647	-83.067757	-1.466300	48.365391
322.496704	-16.005474	-18.841150	-16.141031
322.948639	-95.495102	33.268078	-45.937134
323.400604	-107.925255	-108.279152	-100.602646
323.852509	-110.411629	28.307194	31.005161
324.304352	-53.252720	-6.430098	-40.969997
324.756165	13.775479	-43.671261	-65.809639
325.207916	-45.801373	20.865225	-58.356552
325.659668	-78.097450	-58.574493	-8.694399
326.111328	-30.901531	20.865225	13.639855
326.562988	-11.040870	-13.876443	-80.718391
327.014557	-38.350979	-73.481392	1.233025
327.466156	-83.067757	-63.542992	-16.141031
327.917664	-38.350979	40.708496	-55.872540
328.369110	53.459999	15.903437	23.563530
328.820557	-18.487799	-16.358812	-11.176549
329.271942	-80.582550	-41.187870	-50.904556
329.723297	-8.558860	-80.936279	-26.071383
330.174561	-75.612602	-80.936279	-1.248708
330.625854	-25.935804	-33.738064	-60.840809
331.077026	11.294272	-38.704453	21.082733
331.528229	6.331683	-56.090332	-16.141031
331.979370	-18.487799	-36.221138	13.639855
332.430450	-13.523120	1.015307	-103.088707
332.881500	-58.220898	-6.430098	-90.659729
333.332489	6.331683	-80.936279	-78.233292
333.783478	-25.935804	-75.966293	-28.554268
334.234406	11.294272	38.228416	-88.174202
334.685303	8.812963	3.496945	-63.325169
335.136078	-40.834385	23.346029	-38.486721
335.586914	-16.005474	-43.671261	-103.088707
336.037659	-73.127708	-26.289066	-83.203606
336.488342	-25.935804	-18.841150	-68.294075
336.939026	80.727852	-75.966293	-31.037258
337.389648	-25.935804	-31.254961	-110.547401
337.840240	-110.411629	10.941098	-93.145233
338.290771	-28.418549	3.496945	-75.748291
338.741272	-78.097450	-13.876443	-8.694399
339.191681	-13.523120	-18.841150	-38.486721
339.642120	13.775479	-75.966293	-38.486721
340.092468	36.101257	-83.421501	16.120964
340.542816	-11.040870	-63.542992	-75.748291
340.993103	-58.220898	43.188339	-16.141031
341.443329	18.737444	1.015307	-33.520218
341.893555	-38.350979	-21.323730	-93.145233
342.343689	26.179684	-13.876443	-33.520218
342.793793	38.581429	13.422318	-31.037258
343.243866	-20.970362	5.978478	-108.061157
343.693878	-85.553062	50.627647	-80.718391
344.143890	-43.317894	-36.221138	-21.106064
344.593842	-58.220898	-80.936279	-40.969997
345.043732	-11.040870	-8.912018	-16.141031
345.493591	-8.558860	1.015307	-23.588739
345.943359	-28.418549	-6.430098	-53.388493
346.393158	-28.418549	-28.771961	-63.325169
346.842896	-1.113051	-6.430098	-1.248708
347.292542	26.179684	-8.912018	-90.659729
347.742218	6.331683	-28.771961	-11.176549
348.191803	55.939449	-85.906693	-43.453514
348.641357	-65.673828	-33.738064	-43.453514
349.090881	-35.867680	13.422318	-78.233292
349.540314	-1.113051	-16.358812	-73.263535
349.989777	18.737444	35.748230	-33.520218
350.439148	6.331683	-61.058620	-88.174202
350.888489	-18.487799	1.015307	-68.294075
351.337799	-11.040870	-33.738064	3.714518
351.787048	-20.970362	-73.481392	-3.730546
352.236267	-25.935804	-11.394178	8.677463
352.685425	-125.331871	-1.466300	-45.937134
353.134552	-50.768921	-100.820747	-3.730546
353.583649	-68.158394	-93.363304	21.082733
354.032684	-30.901531	-21.323730	-33.520218
354.481659	-83.067757	43.188339	-6.212488
354.930634	-50.768921	-51.122467	45.885632
355.379517	-75.612602	5.978478	-98.116829
355.828430	-3.594883	-28.771961	-73.263535
356.277222	-107.925255	50.627647	-55.872540
356.726013	-3.594883	-80.936279	-1.248708
357.174774	1.368541	-33.738064	-110.547401
357.623444	-23.453032	-23.806414	-31.037258
358.072113	-3.594883	67.982033	-36.003418
358.520721	55.939449	40.708496	-18.623495
358.969299	73.292419	1.015307	-63.325169
359.417786	-13.523120	43.188339	-23.588739
359.866302	-40.834385	-33.738064	26.044222
360.314697	-45.801373	40.708496	-48.420860
360.763123	16.256447	23.346029	35.965824
361.211456	-58.220898	-23.806414	-23.588739
361.659760	-38.350979	1.015307	70.678200
362.108032	-35.867680	30.787687	35.965824
362.556244	-11.040870	23.346029	-60.840809
363.004456	-50.768921	-103.306679	-100.602646
363.452576	-13.523120	-13.876443	13.639855
363.900696	-18.487799	-1.466300	-55.872540
364.348663	-48.285095	5.978478	-13.658805
364.796722	-70.642929	67.982033	-40.969997
365.244690	-80.582550	-6.430098	13.639855
365.692596	-35.867680	-38.704453	-3.730546
366.140472	-43.317894	-23.806414	31.005161
366.588287	-3.594883	-48.638626	-40.969997
367.036102	-20.970362	-33.738064	-38.486721
367.483826	33.620987	48.147984	-28.554268
367.931549	-85.553062	-36.221138	-16.141031
368.379181	-157.672424	-23.806414	-28.554268
368.826843	-28.418549	-21.323730	-55.872540
369.274384	-55.736755	-23.806414	-11.176549
369.721924	-90.523872	-6.430098	23.563530
370.169403	8.812963	-56.090332	-16.141031
370.616821	-40.834385	-6.430098	-78.233292
371.064270	-11.040870	-105.792862	38.445862
371.511566	-50.768921	-11.394178	112.802071
371.958923	21.218338	-48.638626	-50.904556
372.406158	-1.113051	-8.912018	-11.176549
372.853424	-58.220898	-85.906693	-16.141031
373.300568	-102.952950	-70.996605	-8.694399
373.747711	-83.067757	-83.421501	-16.141031
374.194794	-80.582550	30.787687	-1.248708
374.641846	-33.384621	-58.574493	-28.554268
375.088898	-35.867680	25.826595	-98.116829
375.535828	-1.113051	30.787687	23.563530
375.982758	11.294272	25.826595	-28.554268
376.429596	-35.867680	-21.323730	-33.520218
376.876465	-48.285095	15.903437	-18.623495
377.323242	16.256447	48.147984	-40.969997
377.769989	6.331683	-33.738064	-18.623495
378.216675	-28.418549	3.496945	-78.233292
378.663330	-55.736755	-18.841150	-31.037258
379.109985	16.256447	-11.394178	-26.071383
379.556519	-40.834385	23.346029	-8.694399
380.003052	-13.523120	-6.430098	-50.904556
380.449524	-8.558860	23.346029	-8.694399
380.895996	-35.867680	-16.358812	-18.623495
381.342377	-33.384621	-23.806414	-18.623495
381.788727	-8.558860	-110.765541	-78.233292
382.235046	-25.935804	-23.806414	-23.588739
382.681274	-25.935804	-8.912018	-6.212488
383.127533	-13.523120	40.708496	97.938225
383.573669	-30.901531	8.459772	-26.071383
384.019836	-45.801373	-8.912018	-36.003418
384.465912	-33.384621	-43.671261	-21.106064
384.911957	-65.673828	-6.430098	1.233025
385.357971	-45.801373	-6.430098	-50.904556
385.803925	-120.358078	-13.876443	-26.071383
386.249847	36.101257	-13.876443	-21.106064
386.695679	-6.076819	-70.996605	-13.658805
387.141541	-11.040870	13.422318	-28.554268
387.587311	-60.705147	-68.512047	-18.623495
388.033051	-23.453032	-28.771961	-58.356552
388.478729	-85.553062	5.978478	-23.588739
388.924408	-23.453032	-28.771961	-33.520218
389.369995	-45.801373	-1.466300	-18.623495
389.815552	-68.158394	-63.542992	11.158645
390.261078	-28.418549	-23.806414	13.639855
390.706543	-70.642929	63.024170	-85.688789
391.152008	11.294272	-1.466300	-63.325169
391.597351	26.179684	8.459772	-23.588739
392.042725	-25.935804	58.065895	-43.453514
392.487976	23.699129	-33.738064	-28.554268
392.933289	-16.005474	8.459772	-43.453514
393.378479	-70.642929	92.765587	-45.937134
393.823639	33.620987	48.147984	-50.904556
394.268768	-8.558860	13.422318	-28.554268
394.713837	23.699129	43.188339	-36.003418
395.158905	-38.350979	-33.738064	-73.263535
395.603851	-63.189365	43.188339	45.885632
396.048798	-30.901531	40.708496	6.196043
396.493683	-100.466896	13.422318	-28.554268
396.938568	-80.582550	3.496945	21.082733
397.383392	-63.189365	-51.122467	-70.778755
397.828156	-58.220898	35.748230	-31.037258
398.272888	-35.867680	15.903437	-11.176549
398.717560	1.368541	-46.154892	-100.602646
399.162201	-3.594883	105.153397	-18.623495
399.606781	-80.582550	87.809639	-43.453514
400.051361	-20.970362	10.941098	-43.453514
400.495819	-45.801373	50.627647	11.158645
400.940308	-48.285095	25.826595	26.044222
401.384705	-43.317894	97.720993	-60.840809
401.829102	-33.384621	65.503220	-8.694399
402.273438	-68.158394	55.586540	3.714518
402.717682	-35.867680	132.397827	-55.872540
403.161926	-58.220898	97.720993	-31.037258
403.606110	-127.819008	97.720993	-36.003418
404.050293	-75.612602	117.538803	26.044222
404.494385	-55.736755	159.630005	-40.969997
404.938446	-68.158394	107.630714	1.233025
405.382477	-93.009499	149.728790	-23.588739
405.826447	-90.523872	122.492165	-83.203606
406.270386	-125.331871	137.349976	-88.174202
406.714233	-6.076819	147.253204	65.720566
407.158081	-35.867680	176.953232	-23.588739
407.601868	-35.867680	189.323868	-23.588739
408.045624	-13.523120	300.548859	3.714518
408.489319	-28.418549	273.378906	-8.694399
408.933014	-60.705147	265.966888	-6.212488
409.376617	-43.317894	305.487671	-43.453514
409.820190	-40.834385	219.003494	-13.658805
410.263702	-3.594883	300.548859	-68.294075
410.707184	-33.384621	458.397217	28.524675
411.150635	-20.970362	381.988373	-6.212488
411.594025	-28.418549	409.111511	31.005161
412.037384	-60.705147	463.323639	-40.969997
412.480682	-38.350979	527.333923	-137.904297
412.923981	-30.901531	547.016846	-40.969997
413.367126	-85.553062	515.029236	-18.623495
413.810333	-90.523872	515.029236	-16.141031
414.253479	-50.768921	588.823364	-28.554268
414.696533	-45.801373	647.799622	-83.203606
415.139587	-16.005474	723.900391	-33.520218
415.582581	-28.418549	790.112305	6.196043
416.025543	8.812963	812.168884	33.485542
416.468414	-8.558860	844.015747	-48.420860
416.911285	-53.252720	897.877380	28.524675
417.354065	-20.970362	951.697693	-48.420860
417.796875	-40.834385	1103.154419	-6.212488
418.239594	-58.220898	1149.505493	6.196043
418.682281	-90.523872	1127.553345	28.524675
419.124908	33.620987	1283.515259	6.196043
419.567505	-1.113051	1392.981812	-55.872540
420.010071	11.294272	1409.995850	-93.145233
420.452545	1.368541	1528.989258	-63.325169
420.895020	-60.705147	1698.667969	-80.718391
421.337372	-70.642929	1715.616089	-48.420860
421.779785	16.256447	1858.323975	-1.248708
422.222107	-157.672424	2003.198853	-60.840809
422.664368	-33.384621	2152.642334	-48.420860
423.106628	-68.158394	2357.107178	-31.037258
423.548798	-33.384621	2277.783203	-6.212488
423.990967	-13.523120	2517.943115	-55.872540
424.433044	33.620987	2702.434570	-13.658805
424.875092	18.737444	2805.303223	-11.176549
425.317078	-16.005474	2996.391846	-110.547401
425.759064	-53.252720	3153.755615	18.601969
426.200989	-58.220898	3256.145508	-38.486721
426.642853	-11.040870	3543.708252	-38.486721
427.084686	-11.040870	3714.437988	-55.872540
427.526459	-11.040870	3761.813477	-8.694399
427.968201	-68.158394	4088.129395	-38.486721
428.409912	-68.158394	4239.130371	-68.294075
428.851563	-53.252720	4688.552246	-11.176549
429.293121	-43.317894	4559.322266	16.120964
429.734711	26.179684	5009.817871	-75.748291
430.176239	-38.350979	5171.285645	-68.294075
430.617706	-85.553062	5421.239746	-68.294075
431.059113	16.256447	5721.890625	-58.356552
431.500488	-1.113051	5954.438965	-95.630981
431.941833	-18.487799	6267.678223	-38.486721
432.383087	-53.252720	6637.903809	-26.071383
432.824341	-80.582550	6801.841309	-60.840809
433.265533	-13.523120	7393.491211	8.677463
433.706726	-70.642929	7694.031250	45.885632
434.147827	11.294272	7973.304199	-80.718391
434.588867	-33.384621	8283.934570	-115.520493
435.029877	1.368541	8839.450195	-118.007065
435.470825	-40.834385	9279.534180	-65.809639
435.911804	-30.901531	9661.788086	-113.033890
436.352661	26.179684	10286.150391	-115.520493
436.793518	-16.005474	10436.777344	-95.630981
437.234283	-78.097450	11040.053711	-45.937134
437.675049	-63.189365	11683.439453	-3.730546
438.115723	-25.935804	12022.023438	-23.588739
438.556396	-65.673828	12752.730469	-55.872540
438.997040	-16.005474	13297.326172	3.714518
439.437561	-25.935804	13761.145508	90.504929
439.878113	-48.285095	14265.907227	-90.659729
440.318573	-25.935804	14745.538086	-11.176549
440.759033	6.331683	15612.750977	-73.263535
441.199341	60.897896	16631.337891	-90.659729
441.639709	33.620987	16852.341797	-31.037258
442.079956	16.256447	17552.203125	-50.904556
442.520264	-38.350979	18210.230469	-48.420860
442.960510	-90.523872	19025.666016	-33.520218
443.400604	3.850164	19056.277344	-40.969997
443.840759	-40.834385	20038.470703	-21.106064
444.280762	-50.768921	20916.712891	-23.588739
444.720825	38.581429	21493.445313	35.965824
445.160767	-78.097450	22552.226563	-26.071383
445.600739	38.581429	23276.404297	-95.630981
446.040558	3.850164	24045.992188	-63.325169
446.480438	-120.358078	24191.691406	-11.176549
446.920258	-23.453032	25649.195313	-88.174202
447.359955	-23.453032	26243.246094	-23.588739
447.799713	-18.487799	27324.369141	-31.037258
448.239319	-6.076819	27584.369141	-40.969997
448.678955	21.218338	29025.664063	-78.233292
449.118500	-55.736755	30599.226563	-31.037258
449.558014	-20.970362	30367.767578	-13.658805
449.997498	-6.076819	31833.906250	-36.003418
450.436951	-33.384621	32551.855469	38.445862
450.876343	-28.418549	33522.246094	-115.520493
451.315674	-70.642929	34719.765625	-45.937134
451.754974	63.377037	35098.664063	-48.420860
452.194183	-80.582550	36186.125000	-13.658805
452.633392	-20.970362	37160.773438	-28.554268
453.072510	-50.768921	37619.707031	-78.233292
453.511688	-43.317894	38323.511719	-55.872540
453.950684	-58.220898	39739.875000	38.445862
454.389740	-58.220898	40339.507813	-36.003418
454.828735	-85.553062	41083.210938	18.601969
455.267639	-45.801373	41957.687500	-90.659729
455.706543	-53.252720	42553.394531	-13.658805
456.145325	-18.487799	44027.867188	-36.003418
456.584137	-50.768921	43970.449219	-21.106064
457.022858	6.331683	44948.453125	-1.248708
457.461578	8.812963	46184.953125	-26.071383
457.900208	26.179684	46794.730469	-65.809639
458.338867	-23.453032	47153.171875	-28.554268
458.777405	13.775479	47987.363281	26.044222
459.215912	-45.801373	48287.859375	31.005161
459.654388	93.118141	50180.179688	6.196043
460.092773	-68.158394	50403.960938	-50.904556
460.531189	-68.158394	50457.988281	-80.718391
460.969513	43.541321	51692.453125	-53.388493
461.407806	16.256447	51998.921875	26.044222
461.846008	-68.158394	53203.667969	16.120964
462.284241	-35.867680	53278.386719	-55.872540
462.722351	13.775479	53586.640625	-48.420860
463.160461	23.699129	54465.699219	-48.420860
463.598541	-112.897980	55346.632813	-36.003418
464.036530	-30.901531	56185.351563	-31.037258
464.474518	-23.453032	56449.648438	-88.174202
464.912384	-137.768326	57829.968750	-36.003418
465.350281	-35.867680	57188.179688	-60.840809
465.788086	-38.350979	57763.773438	-13.658805
466.225891	-20.970362	57710.125000	-36.003418
466.663605	-40.834385	58750.355469	-65.809639
467.101318	-75.612602	58442.527344	-38.486721
467.539001	-18.487799	58647.316406	55.803921
467.976563	-93.009499	60143.578125	-43.453514
468.414124	-132.793457	59670.589844	-118.007065
468.851593	-58.220898	59386.542969	-122.980789
469.289063	-16.005474	60225.542969	-100.602646
469.726440	-45.801373	59768.968750	-45.937134
470.163849	21.218338	59110.031250	-78.233292
470.601135	-100.466896	60560.636719	-40.969997
471.038422	-33.384621	59939.796875	-63.325169
471.475677	-28.418549	59131.863281	-88.174202
471.912811	-11.040870	59448.406250	-16.141031
472.350006	-53.252720	59228.164063	-60.840809
472.787048	-30.901531	58621.625000	-31.037258
473.224121	-13.523120	57640.140625	-85.688789
473.661072	-13.523120	57549.878906	-11.176549
474.098053	13.775479	57268.984375	-13.658805
474.534943	-33.384621	56923.460938	18.601969
474.971802	-3.594883	56508.355469	26.044222
475.408630	-18.487799	56015.925781	21.082733
475.845367	-8.558860	54779.796875	-45.937134
476.282104	-1.113051	54670.992188	-48.420860
476.718750	-95.495102	53384.085938	-100.602646
477.155426	-8.558860	53521.214844	11.158645
477.591949	-25.935804	52374.875000	-43.453514
478.028503	21.218338	51701.968750	33.485542
478.464966	-45.801373	51841.976563	-3.730546
478.901428	-117.871269	50500.097656	-45.937134
479.337860	-6.076819	50014.476563	-8.694399
479.774170	-13.523120	49114.621094	-21.106064
480.210510	-30.901531	47607.164063	-13.658805
480.646698	-95.495102	47709.093750	-100.602646
481.082947	-11.040870	46543.640625	13.639855
481.519073	-33.384621	45835.472656	-38.486721
481.955200	33.620987	44618.835938	-108.061157
482.391266	8.812963	44116.550781	-13.658805
482.827301	3.850164	43393.308594	-23.588739
483.263306	21.218338	42439.789063	-18.623495
483.699188	-30.901531	41481.468750	-50.904556
484.135101	18.737444	40092.093750	18.601969
484.570923	-20.970362	39296.992188	-23.588739
485.006744	-83.067757	38813.007813	-50.904556
485.442413	-20.970362	37471.117188	3.714518
485.878174	-13.523120	36850.574219	-21.106064
486.313782	-28.418549	36132.976563	1.233025
486.749390	21.218338	35198.351563	-13.658805
487.184998	-28.418549	33957.093750	-48.420860
487.620453	-48.285095	33144.886719	-18.623495
488.055939	28.660265	32027.337891	1.233025
488.491333	-20.970362	30875.167969	-16.141031
488.926727	-48.285095	30407.832031	-38.486721
489.362030	-90.523872	29306.080078	-3.730546
489.797302	23.699129	28745.281250	-8.694399
490.232513	-63.189365	27722.183594	-8.694399
490.667755	-38.350979	26764.695313	-90.659729
491.102905	38.581429	26245.464844	16.120964
491.537964	16.256447	25066.943359	-28.554268
491.973022	-53.252720	24622.462891	-23.588739
492.407990	-23.453032	23662.121094	-88.174202
492.842957	-33.384621	22983.501953	-40.969997
493.277832	3.850164	22075.248047	-38.486721
493.712738	55.939449	21298.205078	-16.141031
494.147491	3.850164	20684.437500	38.445862
494.582275	-1.113051	20023.148438	13.639855
495.017029	-60.705147	19340.560547	-38.486721
495.451660	-6.076819	18920.714844	-40.969997
495.886292	-83.067757	18559.992188	3.714518
496.320831	-38.350979	17611.236328	-13.658805
496.755402	-40.834385	16961.728516	6.196043
497.189850	-80.582550	16618.207031	53.324471
497.624298	-65.673828	15908.684570	-78.233292
498.058655	-20.970362	15252.952148	-60.840809
498.493042	-33.384621	14609.209961	-88.174202
498.927368	-80.582550	14334.161133	-33.520218
499.361572	11.294272	14149.171875	-78.233292
499.795807	-43.317894	13471.921875	-1.248708
500.229919	-3.594883	13073.904297	-31.037258
500.664063	-33.384621	12641.861328	40.925934
501.098083	-38.350979	12295.540039	-31.037258
501.532104	-30.901531	11832.764648	-23.588739
501.966064	-73.127708	11408.964844	-3.730546
502.399994	-20.970362	10623.166992	-55.872540
502.833893	-93.009499	10526.632813	-38.486721
503.267700	-23.453032	10418.799805	-40.969997
503.701477	11.294272	9826.589844	-18.623495
504.135193	-43.317894	9625.642578	-65.809639
504.568909	-1.113051	9306.709961	-21.106064
505.002502	-58.220898	9009.750977	-55.872540
505.436127	-55.736755	8445.814453	-90.659729
505.869629	-48.285095	8452.649414	-3.730546
506.303162	-28.418549	7941.286133	18.601969
506.736603	-73.127708	7927.562012	11.158645
507.169983	-6.076819	7565.640625	28.524675
507.603363	-58.220898	7398.085449	-31.037258
508.036621	-11.040870	6972.480957	-85.688789
508.469940	-3.594883	6693.343262	-6.212488
508.903107	-25.935804	6559.322266	-75.748291
509.336304	-63.189365	6286.215820	-80.718391
509.769379	-13.523120	6010.184082	11.158645
510.202484	-95.495102	5933.527832	-28.554268
510.635529	-63.189365	5714.907715	-53.388493
511.068481	-60.705147	5521.540527	-26.071383
511.501434	-83.067757	5283.480469	16.120964
511.934265	-85.553062	5199.344238	6.196043
512.367126	-18.487799	5023.867188	6.196043
512.799927	-13.523120	4733.160645	-11.176549
513.232605	-125.331871	4535.809570	-125.467827
513.665344	-75.612602	4368.730469	-23.588739
514.097961	1.368541	4406.403809	-48.420860
514.530579	-68.158394	4114.097656	53.324471
514.963135	-8.558860	4118.818359	70.678200
515.395691	36.101257	3946.375488	-48.420860
515.828064	-18.487799	3780.757813	-33.520218
516.260498	36.101257	3702.591064	-40.969997
516.692871	-58.220898	3467.737305	-28.554268
517.125183	6.331683	3298.975342	-95.630981
517.557373	-11.040870	3332.274658	-45.937134
517.989624	-13.523120	3158.520264	-60.840809
518.421753	-122.844856	3101.328857	-60.840809
518.853943	-127.819008	3110.863037	-38.486721
519.286072	-120.358078	2781.390625	-70.778755
519.718018	-16.005474	2733.546143	1.233025
520.150024	-35.867680	2697.647217	-100.602646
520.581909	18.737444	2635.389648	-53.388493
521.013855	26.179684	2465.163330	-45.937134
521.445679	-40.834385	2445.962402	-68.294075
521.877502	21.218338	2357.107178	-21.106064
522.309204	13.775479	2325.867188	-31.037258
522.740906	50.980453	2265.758301	-83.203606
523.172546	-85.553062	2094.824219	-8.694399
523.604187	-43.317894	2058.667969	-93.145233
524.035767	-6.076819	2032.143799	-26.071383
524.467224	-33.384621	2032.143799	-40.969997
524.898682	-63.189365	1938.036133	-18.623495
525.330078	-23.453032	1954.934937	-55.872540
525.761475	-58.220898	1725.298950	-38.486721
526.192749	-1.113051	1734.980957	-80.718391
526.624023	-28.418549	1691.403198	-48.420860
527.055237	-125.331871	1543.547241	-21.106064
527.486389	-35.867680	1555.677002	-45.937134
527.917542	-18.487799	1366.237915	-83.203606
528.348572	-28.418549	1531.415894	-11.176549
528.779663	-38.350979	1356.510376	-21.106064
529.210571	-117.871269	1310.288208	-6.212488
529.641541	-58.220898	1268.907715	-83.203606
530.072388	-28.418549	1237.248047	-73.263535
530.503235	-83.067757	1183.640137	-53.388493
530.934082	-63.189365	1105.594727	-45.937134
531.364746	-115.384575	1195.827026	-55.872540
531.795532	-45.801373	1173.888794	-31.037258
532.226135	13.775479	1073.865112	11.158645
532.656738	-28.418549	1117.795044	3.714518
533.087280	-60.705147	1083.629639	-28.554268
533.517822	-75.612602	978.592407	-23.588739
533.948242	-25.935804	1005.476868	-36.003418
534.378662	-90.523872	978.592407	43.405899
534.809082	-100.466896	985.925415	16.120964
535.239319	-78.097450	878.296082	16.120964
535.669617	-3.594883	839.117065	-68.294075
536.099792	-35.867680	880.744080	23.563530
536.529968	-83.067757	841.566467	40.925934
536.960083	-13.523120	802.366699	23.563530
537.390137	-53.252720	795.014465	21.082733
537.820190	-18.487799	799.916260	43.405899
538.250183	-38.350979	723.900391	43.405899
538.680115	-6.076819	743.525452	-60.840809
539.109985	-25.935804	748.430908	38.445862
539.539795	-53.252720	753.335815	-122.980789
539.969543	-100.466896	689.542847	-13.658805
540.399292	-30.901531	669.902161	8.677463
540.828979	18.737444	738.619629	-38.486721
541.258606	-6.076819	768.048706	-8.694399
541.688171	-93.009499	637.973755	-63.325169
542.117737	26.179684	608.487976	-1.248708
542.547302	-18.487799	539.636475	-68.294075
542.976685	-53.252720	564.234497	21.082733
543.406128	-43.317894	534.715698	-6.212488
543.835388	-20.970362	618.318054	-23.588739
544.264771	-88.038345	610.945496	31.005161
544.693970	-13.523120	480.563416	-18.623495
545.123230	-13.523120	465.786804	-16.141031
545.552307	-38.350979	529.794617	-105.574883
545.981506	-55.736755	576.530151	-53.388493
546.410583	68.334869	534.715698	-28.554268
546.839539	-75.612602	524.873230	-28.554268
547.268555	-80.582550	529.794617	-13.658805
547.697449	-23.453032	547.016846	-93.145233
548.126282	-73.127708	507.645233	-78.233292
548.555054	-80.582550	428.830322	-118.007065
548.983887	-63.189365	377.055542	-58.356552
549.412598	-16.005474	359.787933	6.196043
549.841309	58.418789	389.386749	-6.212488
550.269958	13.775479	335.111786	-73.263535
550.698486	-65.673828	478.100861	-80.718391
551.127075	-30.901531	337.579865	23.563530
551.555481	-13.523120	409.111511	-13.658805
551.983948	-50.768921	433.759033	-60.840809
552.412292	13.775479	381.988373	-13.658805
552.840698	-35.867680	374.588989	28.524675
553.268860	-45.801373	344.983429	-53.388493
553.697205	-11.040870	416.506744	-21.106064
554.125366	-48.285095	303.018311	-6.212488
554.553467	43.541321	320.301453	-28.554268
554.981628	-23.453032	307.956787	6.196043
555.409607	13.775479	303.018311	-65.809639
555.837646	16.256447	330.175415	-40.969997
556.265564	-58.220898	293.140076	-60.840809
556.693481	6.331683	283.260284	-26.071383
557.121338	26.179684	216.530701	-53.388493
557.549133	-23.453032	288.200439	11.158645
557.976929	-33.384621	280.790039	1.233025
558.404602	-50.768921	290.670227	18.601969
558.832275	28.660265	256.082794	3.714518
559.259888	65.856071	303.018311	-8.694399
559.687439	-48.285095	256.082794	-11.176549
560.114929	-33.384621	236.309967	1.233025
560.542419	21.218338	231.365677	68.199501
560.969788	-53.252720	223.948639	-28.554268
561.397156	-23.453032	246.197235	-115.520493
561.824524	-38.350979	261.025085	68.199501
562.251770	-100.466896	159.630005	60.762516
562.679016	-11.040870	248.668701	50.845047
563.106140	-18.487799	172.004166	-18.623495
563.533264	-60.705147	288.200439	-58.356552
563.960327	6.331683	248.668701	-103.088707
564.387329	-8.558860	152.204285	1.233025
564.814331	-11.040870	189.323868	11.158645
565.241272	-40.834385	216.530701	43.405899
565.668213	-33.384621	189.323868	-60.840809
566.094971	-40.834385	219.003494	16.120964
566.521790	-3.594883	152.204285	53.324471
566.948425	-73.127708	199.218674	6.196043
567.375183	-100.466896	248.668701	-8.694399
567.801819	-18.487799	233.837875	-38.486721
568.228394	8.812963	144.777512	33.485542
568.654846	-50.768921	204.165405	28.524675
569.081421	1.368541	204.165405	6.196043
569.507874	-58.220898	204.165405	11.158645
569.934265	-50.768921	216.530701	-33.520218
570.360596	46.021179	246.197235	-13.658805
570.786865	16.256447	216.530701	73.156937
571.213074	-18.487799	134.874023	-26.071383
571.639282	-33.384621	117.538803	-23.588739
572.065430	3.850164	162.104950	8.677463
572.491516	-28.418549	87.809639	95.460648
572.917603	-53.252720	129.921524	3.714518
573.343567	-65.673828	219.003494	-31.037258
573.769531	-6.076819	238.781830	21.082733
574.195435	-38.350979	256.082794	142.518936
574.621277	-120.358078	167.054825	40.925934
575.047119	-78.097450	85.331512	75.635559
575.472839	-53.252720	263.495972	18.601969
575.898560	16.256447	154.679535	83.070702
576.324158	-13.523120	149.728790	28.524675
576.749817	-28.418549	189.323868	31.005161
577.175293	23.699129	110.107918	35.965824
577.600830	16.256447	194.271545	105.370605
578.026306	-65.673828	201.692154	40.925934
578.451721	-68.158394	149.728790	45.885632
578.877136	55.939449	90.287666	8.677463
579.302429	-3.594883	70.460876	162.322083
579.727661	-68.158394	100.198608	102.893333
580.152832	-105.438980	134.874023	107.847900
580.578064	-58.220898	95.243271	33.485542
581.003113	-78.097450	75.418251	95.460648
581.428223	-100.466896	40.708496	147.470261
581.853271	-16.005474	95.243271	70.678200
582.278198	-88.038345	25.826595	107.847900
582.703125	-25.935804	107.630714	85.548927
583.127930	-16.005474	149.728790	137.567200
583.552795	-65.673828	152.204285	182.118683
583.977539	-60.705147	149.728790	226.637909
584.402283	-40.834385	139.825974	137.567200
584.826965	50.980453	82.853424	194.488434
585.251587	-43.317894	167.054825	206.855530
585.676208	-13.523120	97.720993	177.170181
586.100647	55.939449	122.492165	266.183533
586.525208	-70.642929	107.630714	184.592850
586.949524	-63.189365	137.349976	219.220291
587.373962	11.294272	97.720993	172.221252
587.798218	-43.317894	142.301865	206.855530
588.222534	55.939449	95.243271	246.413925
588.646729	16.256447	30.787687	278.536438
589.070984	23.699129	87.809639	192.014648
589.495117	-25.935804	28.307194	271.125031
589.919128	-33.384621	167.054825	266.183533
590.343201	-16.005474	55.586540	236.526703
590.767151	-25.935804	1.015307	394.534668
591.191101	-23.453032	90.287666	226.637909
591.614990	13.775479	58.065895	406.862488
592.038818	-63.189365	117.538803	431.510864
592.462524	-100.466896	95.243271	468.465790
592.886292	-135.280899	137.349976	485.704163
593.310059	-35.867680	45.668213	429.046417
593.733582	-93.009499	90.287666	539.852173
594.157227	-88.038345	23.346029	512.783752
594.580750	-33.384621	85.331512	453.686279
595.004272	-3.594883	72.939613	515.244995
595.427673	-11.040870	112.584892	593.955688
595.851074	-70.642929	159.630005	638.189270
596.274353	-13.523120	102.675987	682.393555
596.697632	-102.952950	33.268078	645.558716
597.120911	-53.252720	30.787687	763.359802
597.544067	36.101257	58.065895	787.876221
597.967224	-65.673828	60.545017	824.634277
598.390320	-6.076819	35.748230	817.284119
598.813354	3.850164	92.765587	947.020813
599.236328	-80.582550	75.418251	925.007141
599.659241	-80.582550	82.853424	920.114197
600.082153	-18.487799	23.346029	995.916321
600.505005	-8.558860	95.243271	1025.237427
600.927795	11.294272	33.268078	1003.247620
601.350525	23.699129	18.384315	1154.596558
601.773254	-40.834385	87.809639	1159.473755
602.195862	-58.220898	92.765587	1178.978516
602.618408	-38.350979	129.921524	1278.859863
603.040955	-11.040870	63.024170	1312.935181
603.463440	-65.673828	-11.394178	1395.625854
603.885925	-35.867680	72.939613	1385.902100
604.308350	65.856071	70.460876	1466.085449
604.730652	-38.350979	-1.466300	1497.650269
605.152893	-40.834385	60.545017	1708.565308
605.575195	-25.935804	120.015465	1727.931885
605.997375	-48.285095	58.065895	1800.515381
606.419495	-85.553062	65.503220	1911.685791
606.841553	-25.935804	82.853424	2073.343750
607.263672	-8.558860	55.586540	2082.985107
607.685608	-43.317894	25.826595	2174.525635
608.107605	-63.189365	53.107075	2294.826660
608.529480	8.812963	50.627647	2366.928223
608.951294	-3.594883	117.538803	2609.246826
609.373108	-90.523872	48.147984	2681.099609
609.794800	46.021179	35.748230	2791.166016
610.216553	-6.076819	38.228416	3022.845703
610.638123	-30.901531	60.545017	3223.029785
611.059753	-135.280899	129.921524	3253.974121
611.481262	-45.801373	134.874023	3503.563721
611.902832	-1.113051	53.107075	3641.171387
612.324219	-70.642929	117.538803	3849.609131
612.745605	-25.935804	18.384315	4041.105713
613.166931	-60.705147	181.901764	4310.046875
613.588196	-18.487799	137.349976	4507.795410
614.009460	-90.523872	80.375092	4698.150879
614.430664	-117.871269	-23.806414	5127.050781
614.851807	-65.673828	30.787687	5321.059570
615.272827	-63.189365	50.627647	5738.387695
615.693909	-38.350979	40.708496	5936.054688
616.114929	-45.801373	38.228416	6154.279297
616.535889	-25.935804	38.228416	6614.999512
616.956787	-80.582550	43.188339	7014.155273
617.377563	-95.495102	115.061897	7177.608887
617.798340	-60.705147	58.065895	7561.253906
618.219055	-35.867680	139.825974	7886.582031
618.639832	-90.523872	58.065895	8448.291992
619.060364	-25.935804	-1.466300	8778.288086
619.481018	-80.582550	100.198608	9442.711914
619.901611	-23.453032	10.941098	9919.265625
620.322083	-35.867680	85.331512	10369.547852
620.742493	-8.558860	-11.394178	10928.291992
621.162842	-18.487799	120.015465	11076.059570
621.583191	-75.612602	-8.912018	11808.453125
622.003418	-105.438980	82.853424	12386.816406
622.423706	-85.553062	63.024170	12987.762695
622.843872	1.368541	77.896660	13425.717773
623.264038	-25.935804	77.896660	14248.482422
623.684143	-93.009499	8.459772	14703.958984
624.104126	-43.317894	87.809639	15371.652344
624.524170	-80.582550	-51.122467	16125.774414
624.944031	-18.487799	50.627647	16813.152344
625.364014	-125.331871	43.188339	17335.921875
625.783752	-45.801373	35.748230	17862.845703
626.203552	-30.901531	-1.466300	18269.445313
626.623230	28.660265	18.384315	19167.988281
627.042969	31.140745	-3.948147	19986.134766
627.462585	-88.038345	5.978478	20671.486328
627.882141	-43.317894	35.748230	21276.464844
628.301697	-35.867680	5.978478	22125.972656
628.721130	-20.970362	38.228416	22570.013672
629.140625	21.218338	-8.912018	23591.757813
629.559998	-125.331871	40.708496	24072.673828
629.979309	-25.935804	-3.948147	24512.160156
630.398560	-16.005474	-11.394178	24722.128906
630.817810	-1.113051	65.503220	25149.005859
631.237000	-53.252720	33.268078	24781.822266
631.656067	-43.317894	82.853424	25060.501953
632.075195	-95.495102	30.787687	24640.339844
632.494202	-58.220898	-21.323730	24364.140625
632.913208	-33.384621	48.147984	23702.009766
633.332092	-16.005474	13.422318	23060.753906
633.750977	-50.768921	8.459772	22235.841797
634.169739	-33.384621	-16.358812	21184.359375
634.588562	-16.005474	-8.912018	19787.001953
635.007263	1.368541	149.728790	18599.535156
635.425964	-120.358078	28.307194	17261.568359
635.844543	-75.612602	38.228416	16294.409180
636.263123	-1.113051	58.065895	14879.800781
636.681641	-80.582550	43.188339	13551.632813
637.100037	-6.076819	95.243271	12404.583008
637.518494	-58.220898	-23.806414	11192.386719
637.936829	-70.642929	-46.154892	10171.591797
638.355164	-78.097450	65.503220	9041.714844
638.773438	-100.466896	-3.948147	8377.636719
639.191650	-65.673828	-18.841150	7278.799805
639.609863	-35.867680	-13.876443	6663.519043
640.027893	-18.487799	-70.996605	5961.611328
640.445984	1.368541	-11.394178	5447.110840
640.863953	-48.285095	23.346029	5021.730469
641.281921	-117.871269	-33.738064	4416.026367
641.699829	-3.594883	-58.574493	3842.510254
642.117676	-45.801373	3.496945	3648.284180
642.535461	-6.076819	80.375092	3375.280273
642.953247	-80.582550	-16.358812	2996.600586
643.370972	-16.005474	-33.738064	2815.076660
643.788635	1.368541	43.188339	2568.505859
644.206177	-45.801373	-70.996605	2282.803711
644.623718	-33.384621	-58.574493	2056.468506
645.041260	-6.076819	5.978478	1860.952637
645.458618	-25.935804	60.545017	1815.024292
645.876099	53.459999	53.107075	1582.568481
646.293396	-11.040870	40.708496	1531.628418
646.710693	-13.523120	40.708496	1487.939331
647.127991	-43.317894	3.496945	1327.534180
647.545166	-23.453032	72.939613	1198.477905
647.962341	-48.285095	60.545017	991.028259
648.379333	-18.487799	95.243271	1020.351318
648.796448	-23.453032	40.708496	841.781311
649.213379	-28.418549	-11.394178	790.327393
649.630310	-65.673828	-13.876443	692.212952
650.047180	3.850164	3.496945	652.927307
650.463989	-95.495102	33.268078	584.121948
650.880859	-68.158394	5.978478	584.121948
651.297546	3.850164	10.941098	394.534668
651.714233	-3.594883	-26.289066	424.117371
652.130859	-65.673828	53.107075	394.534668
652.547485	-60.705147	-6.430098	318.049164
652.963928	75.770912	3.496945	281.006775
653.380432	-3.594883	8.459772	288.416992
653.796814	-43.317894	-66.027466	303.234802
654.213196	-53.252720	-73.481392	211.801788
654.629578	16.256447	-3.948147	313.111450
655.045837	-40.834385	-70.996605	204.382385
655.462036	-48.285095	40.708496	140.043045
655.878174	-18.487799	-26.289066	204.382385
656.294312	-48.285095	-23.806414	149.945831
656.710327	-25.935804	-8.912018	35.965824
657.126404	-132.793457	-26.289066	83.070702
657.542358	-102.952950	20.865225	159.847015
657.958252	-53.252720	-53.606281	159.847015
658.374084	-30.901531	-90.877663	169.746582
658.789917	-6.076819	-53.606281	70.678200
659.205688	-13.523120	-11.394178	85.548927
659.621338	-60.705147	-43.671261	97.938225
660.037048	-16.005474	15.903437	65.720566
660.452637	-53.252720	20.865225	85.548927
660.868164	-48.285095	30.787687	97.938225
661.283691	-30.901531	8.459772	127.662392
661.699158	-30.901531	-1.466300	63.241524
662.114502	-25.935804	82.853424	11.158645
662.529846	-23.453032	8.459772	21.082733
662.945129	-60.705147	-33.738064	142.518936
663.360413	-60.705147	-85.906693	65.720566
663.775635	-13.523120	10.941098	-26.071383
664.190674	-23.453032	-48.638626	-63.325169
664.605835	-25.935804	1.015307	83.070702
665.020813	-45.801373	-1.466300	-28.554268
665.435791	-50.768921	33.268078	88.026909
665.850769	-13.523120	5.978478	6.196043
666.265625	-20.970362	15.903437	31.005161
666.680420	-107.925255	-23.806414	43.405899
667.095215	-60.705147	-33.738064	11.158645
667.509949	-53.252720	30.787687	3.714518
667.924622	-38.350979	-43.671261	-18.623495
668.339233	-45.801373	-6.430098	-1.248708
668.753784	-115.384575	-31.254961	-40.969997
669.168335	-13.523120	5.978478	28.524675
669.582825	33.620987	-28.771961	-31.037258
669.997192	-40.834385	-16.358812	-73.263535
670.411560	-97.980942	-70.996605	-43.453514
670.825867	6.331683	-28.771961	-21.106064
671.240173	-28.418549	28.307194	26.044222
671.654358	-73.127708	-23.806414	-65.809639
672.068481	-110.411629	-48.638626	21.082733
672.482605	16.256447	-23.806414	35.965824
672.896667	16.256447	-23.806414	-100.602646
673.310669	-55.736755	-21.323730	11.158645
673.724609	-28.418549	-110.765541	-23.588739
674.138489	-90.523872	-26.289066	-75.748291
674.552307	-55.736755	-8.912018	45.885632
674.966064	-3.594883	-66.027466	-28.554268
675.379822	-6.076819	-66.027466	-85.688789
675.793579	33.620987	-63.542992	-3.730546
676.207153	-73.127708	75.418251	8.677463
676.620789	-48.285095	-3.948147	-21.106064
677.034241	-3.594883	-16.358812	-8.694399
677.447754	-63.189365	13.422318	8.677463
677.861206	-75.612602	72.939613	-11.176549
678.274597	3.850164	-6.430098	-78.233292
678.687866	-6.076819	-78.451164	-3.730546
679.101135	-16.005474	-61.058620	-28.554268
679.514404	-16.005474	38.228416	-36.003418
679.927551	-73.127708	3.496945	-43.453514
680.340698	-80.582550	-51.122467	26.044222
680.753723	-88.038345	8.459772	-26.071383
681.166748	-38.350979	-16.358812	-26.071383
681.579712	-107.925255	-16.358812	-75.748291
681.992615	-43.317894	-56.090332	-31.037258
682.405457	-65.673828	-13.876443	26.044222
682.818298	-95.495102	8.459772	-53.388493
683.231018	-105.438980	8.459772	-11.176549
683.643738	-1.113051	-51.122467	6.196043
684.056335	-35.867680	-26.289066	-26.071383
684.468994	1.368541	-23.806414	-73.263535
684.881531	-83.067757	-13.876443	6.196043
685.293945	-63.189365	67.982033	-50.904556
685.706482	-3.594883	5.978478	11.158645
686.118774	-75.612602	-36.221138	-147.855499
686.531128	-35.867680	1.015307	-18.623495
686.943481	-38.350979	-38.704453	-88.174202
687.355713	-50.768921	-3.948147	-48.420860
687.767883	-85.553062	-36.221138	-1.248708
688.179932	-25.935804	-66.027466	28.524675
688.592041	-35.867680	-115.738510	-6.212488
689.004089	-93.009499	-6.430098	-28.554268
689.416016	-25.935804	-28.771961	-85.688789
689.827881	-85.553062	30.787687	-33.520218
690.239868	-28.418549	28.307194	-26.071383
690.651611	-53.252720	-3.948147	3.714518
691.063354	31.140745	20.865225	1.233025
691.475098	11.294272	-98.334778	-18.623495
691.886719	-18.487799	38.228416	-33.520218
692.298340	-6.076819	20.865225	-1.248708
692.709900	-83.067757	18.384315	-26.071383
693.121460	-55.736755	3.496945	3.714518
693.532837	-100.466896	-46.154892	11.158645
693.944214	-16.005474	-88.392120	-45.937134
694.355652	50.980453	-93.363304	-36.003418
694.766846	-55.736755	-61.058620	-68.294075
695.178101	18.737444	-6.430098	45.885632
695.589294	-3.594883	-3.948147	11.158645
696.000366	-85.553062	-61.058620	-40.969997
696.411438	-16.005474	-13.876443	-26.071383
696.822510	-30.901531	-133.147507	-60.840809
697.233459	-65.673828	-48.638626	-11.176549
697.644409	-33.384621	-13.876443	6.196043
698.055298	18.737444	8.459772	-58.356552
698.466064	6.331683	-70.996605	31.005161
698.876831	13.775479	67.982033	21.082733
699.287537	-43.317894	-33.738064	-33.520218
699.698181	-55.736755	-1.466300	-53.388493
700.108826	-28.418549	-1.466300	-3.730546
700.519348	-13.523120	-23.806414	-40.969997
700.929810	26.179684	3.496945	-75.748291
701.340271	-18.487799	-31.254961	-85.688789
701.750732	-18.487799	-53.606281	-90.659729
702.161011	8.812963	-48.638626	-50.904556
702.571350	-20.970362	-6.430098	13.639855
702.981567	-38.350979	-1.466300	21.082733
703.391724	-50.768921	-28.771961	-11.176549
703.801880	-28.418549	-16.358812	-75.748291
704.211914	-102.952950	43.188339	-23.588739
704.621948	-85.553062	23.346029	-93.145233
705.031921	-16.005474	-80.936279	13.639855
705.441895	6.331683	-38.704453	-68.294075
705.851746	-43.317894	55.586540	-60.840809
706.261536	41.061493	25.826595	-45.937134
706.671265	13.775479	-28.771961	1.233025
707.081055	3.850164	-85.906693	-58.356552
707.490662	-3.594883	-23.806414	-33.520218
707.900330	41.061493	-21.323730	-40.969997
708.309814	-58.220898	40.708496	-58.356552
708.719299	-28.418549	-13.876443	-48.420860
709.128784	26.179684	-16.358812	-70.778755
709.538147	-38.350979	38.228416	13.639855
709.947510	-75.612602	13.422318	-48.420860
710.356750	-75.612602	-31.254961	-70.778755
710.766052	-88.038345	13.422318	-65.809639
711.175171	-110.411629	-58.574493	-93.145233
711.584290	-80.582550	-21.323730	-105.574883
711.993347	-58.220898	-33.738064	-8.694399
712.402405	3.850164	-8.912018	3.714518
712.811401	13.775479	-8.912018	-13.658805
713.220276	28.660265	-46.154892	-88.174202
713.629150	-43.317894	-68.512047	-45.937134
714.037964	-53.252720	18.384315	-26.071383
714.446777	1.368541	-21.323730	-6.212488
714.855408	-25.935804	-43.671261	-33.520218
715.264099	-25.935804	77.896660	-6.212488
715.672668	-68.158394	-11.394178	-40.969997
716.081177	-33.384621	-53.606281	-40.969997
716.489746	-50.768921	-41.187870	-36.003418
716.898132	8.812963	-56.090332	-40.969997
717.306519	-6.076819	-43.671261	-63.325169
717.714844	13.775479	-41.187870	23.563530
718.123108	8.812963	-70.996605	-13.658805
718.531372	-63.189365	-46.154892	-28.554268
718.939514	-55.736755	-11.394178	-21.106064
719.347595	43.541321	3.496945	-13.658805
719.755676	-45.801373	-31.254961	-31.037258
720.163696	11.294272	-78.451164	28.524675
720.571716	-97.980942	-31.254961	-60.840809
720.979614	65.856071	-23.806414	-55.872540
721.387451	-85.553062	-3.948147	3.714518
721.795227	-1.113051	-26.289066	-88.174202
722.202942	53.459999	28.307194	-33.520218
722.610718	43.541321	95.243271	-3.730546
723.018311	-33.384621	53.107075	-31.037258
723.425903	-16.005474	-31.254961	-88.174202
723.833374	-63.189365	-23.806414	-6.212488
724.240906	-20.970362	-58.574493	-100.602646
724.648376	-40.834385	-1.466300	-78.233292
725.055725	-85.553062	15.903437	-3.730546
725.463013	-25.935804	-46.154892	-95.630981
725.870300	-11.040870	-41.187870	-18.623495
726.277466	-1.113051	-23.806414	-95.630981
726.684631	-20.970362	5.978478	-75.748291
727.091797	1.368541	1.015307	-33.520218
727.498779	-70.642929	-23.806414	-80.718391
727.905823	-30.901531	15.903437	-43.453514
728.312805	-55.736755	-61.058620	28.524675
728.719666	-45.801373	-18.841150	-65.809639
729.126526	-85.553062	-63.542992	70.678200
729.533264	-33.384621	-56.090332	-3.730546
729.940063	-48.285095	-61.058620	-18.623495
730.346680	-3.594883	-26.289066	-18.623495
730.753357	-35.867680	-43.671261	-26.071383
731.159851	-40.834385	-80.936279	-16.141031
731.566406	-75.612602	-16.358812	-11.176549
731.972900	-102.952950	-21.323730	-40.969997
732.379272	-20.970362	15.903437	-63.325169
732.785645	-73.127708	-16.358812	-83.203606
733.191895	-85.553062	20.865225	-73.263535
733.598206	-43.317894	-48.638626	55.803921
734.004333	-65.673828	-95.848923	-50.904556
734.410522	-43.317894	-18.841150	16.120964
734.816528	-45.801373	-1.466300	-113.033890
735.222656	-38.350979	-6.430098	-8.694399
735.628662	-40.834385	50.627647	-95.630981
736.034546	-63.189365	-78.451164	8.677463
736.440430	-73.127708	5.978478	-26.071383
736.846252	-23.453032	-13.876443	-48.420860
737.252014	-107.925255	-31.254961	53.324471
737.657715	-23.453032	-33.738064	-3.730546
738.063354	18.737444	15.903437	-50.904556
738.468933	-38.350979	-56.090332	-31.037258
738.874512	-33.384621	-53.606281	-63.325169
739.280029	-13.523120	70.460876	-88.174202
739.685486	-40.834385	-56.090332	6.196043
740.090881	-48.285095	-23.806414	-36.003418
740.496216	-33.384621	-53.606281	-3.730546
740.901550	-23.453032	-33.738064	-38.486721
741.306702	-16.005474	5.978478	53.324471
741.711914	-105.438980	-85.906693	-1.248708
742.117004	-45.801373	-23.806414	-55.872540
742.522095	-63.189365	-23.806414	-43.453514
742.927124	-20.970362	-11.394178	-85.688789
743.332031	-80.582550	3.496945	-53.388493
743.737000	-1.113051	-28.771961	-55.872540
744.141785	-157.672424	-26.289066	38.445862
744.546631	-73.127708	-78.451164	-48.420860
744.951355	-6.076819	-8.912018	-53.388493
745.356079	-8.558860	-46.154892	-73.263535
745.760620	-20.970362	-110.765541	13.639855
746.165283	-55.736755	-1.466300	-11.176549
746.569824	-80.582550	-28.771961	-45.937134
746.974243	-63.189365	-38.704453	50.845047
747.378723	-48.285095	-88.392120	6.196043
747.783020	13.775479	-83.421501	-33.520218
748.187378	-53.252720	-83.421501	-43.453514
748.591614	-70.642929	-31.254961	35.965824
748.995850	-60.705147	-21.323730	-88.174202
749.399963	-35.867680	-88.392120	-53.388493
749.804077	-65.673828	-95.848923	45.885632
750.208130	-18.487799	13.422318	-53.388493
750.612122	-50.768921	-68.512047	-70.778755
751.016052	-73.127708	-53.606281	-45.937134
751.419922	26.179684	53.107075	-90.659729
751.823792	-1.113051	25.826595	53.324471
752.227478	-130.306107	-8.912018	-33.520218
752.631226	18.737444	-31.254961	-18.623495
753.034851	-45.801373	-78.451164	-23.588739
753.438477	-18.487799	-33.738064	-48.420860
753.842102	-65.673828	38.228416	-28.554268
754.245544	-33.384621	-61.058620	-3.730546
754.648987	6.331683	-88.392120	-28.554268
755.052368	16.256447	-68.512047	-3.730546
755.455750	-80.582550	-36.221138	-60.840809
755.859009	-35.867680	-36.221138	-36.003418
756.262268	36.101257	20.865225	-6.212488
756.665405	-78.097450	-48.638626	-40.969997
757.068542	-48.285095	18.384315	-36.003418
757.471680	-63.189365	30.787687	-18.623495
757.874634	6.331683	-83.421501	1.233025
758.277588	11.294272	-13.876443	11.158645
758.680420	11.294272	23.346029	1.233025
759.083374	-73.127708	-26.289066	31.005161
759.486084	-35.867680	-33.738064	-40.969997
759.888916	-45.801373	-8.912018	-50.904556
760.291504	-33.384621	-46.154892	-43.453514
760.694214	-1.113051	-68.512047	-118.007065
761.096802	-25.935804	-16.358812	-73.263535
761.499268	-23.453032	-11.394178	-48.420860
761.901733	-48.285095	-61.058620	-53.388493
762.304199	-43.317894	63.024170	-65.809639
762.706543	-55.736755	-31.254961	-55.872540
763.108826	-75.612602	-66.027466	35.965824
763.511108	-40.834385	-48.638626	11.158645
763.913208	-117.871269	-88.392120	60.762516
764.315369	-75.612602	-16.358812	-68.294075
764.717529	23.699129	-46.154892	-23.588739
765.119568	-8.558860	-23.806414	26.044222
765.521545	-11.040870	-28.771961	-60.840809
765.923462	-25.935804	-13.876443	-50.904556
766.325317	41.061493	-85.906693	-53.388493
766.727112	-35.867680	-6.430098	3.714518
767.128845	-50.768921	-75.966293	-55.872540
767.530518	13.775479	-16.358812	-38.486721
767.932251	3.850164	-28.771961	-95.630981
768.333862	-127.819008	23.346029	-98.116829
768.735413	-43.317894	-33.738064	-113.033890
769.136841	-68.158394	25.826595	-43.453514
769.538269	-8.558860	8.459772	-16.141031
769.939636	-48.285095	-48.638626	-70.778755
770.341003	-50.768921	-73.481392	-26.071383
770.742249	-60.705147	-21.323730	6.196043
771.143433	-43.317894	-53.606281	-31.037258
771.544617	38.581429	-3.948147	-6.212488
771.945740	-78.097450	-18.841150	-93.145233
772.346802	-53.252720	30.787687	-3.730546
772.747803	-1.113051	-53.606281	-33.520218
773.148682	-65.673828	13.422318	-85.688789
773.549622	-68.158394	-108.279152	-45.937134
773.950439	-63.189365	-75.966293	-45.937134
774.351196	-75.612602	20.865225	-3.730546
774.751892	-11.040870	18.384315	-85.688789
775.152588	-11.040870	-90.877663	11.158645
775.553162	-105.438980	18.384315	-98.116829
775.953735	-53.252720	-3.948147	6.196043
776.354309	-97.980942	-78.451164	18.601969
776.754639	-1.113051	-123.198845	-1.248708
777.155090	8.812963	-43.671261	-45.937134
777.555420	-25.935804	5.978478	-103.088707
777.955750	-28.418549	-26.289066	-40.969997
778.355896	23.699129	23.346029	-105.574883
778.756104	-16.005474	-56.090332	21.082733
779.156189	-48.285095	-41.187870	-95.630981
779.556274	-38.350979	-68.512047	-48.420860
779.956299	-58.220898	-13.876443	3.714518
780.356201	-16.005474	-118.225227	31.005161
780.756165	8.812963	-68.512047	-65.809639
781.156006	36.101257	5.978478	-1.248708
781.555786	16.256447	30.787687	-63.325169
781.955505	-33.384621	18.384315	-21.106064
782.355225	11.294272	-33.738064	-23.588739
782.754761	-65.673828	-95.848923	1.233025
783.154358	-1.113051	1.015307	-90.659729
783.553894	-53.252720	-11.394178	-40.969997
783.953369	-75.612602	8.459772	-63.325169
784.352783	-6.076819	-18.841150	-65.809639
784.752075	16.256447	-21.323730	-90.659729
785.151367	21.218338	28.307194	-63.325169
785.550598	-55.736755	-21.323730	55.803921
785.949768	-35.867680	-18.841150	-11.176549
786.348877	-70.642929	-58.574493	8.677463
786.747986	-33.384621	-43.671261	-21.106064
787.147034	-11.040870	-23.806414	11.158645
787.545959	-1.113051	-93.363304	11.158645
787.944885	-20.970362	-21.323730	-26.071383
788.343750	-33.384621	-63.542992	-38.486721
788.742493	-11.040870	8.459772	-3.730546
789.141235	-73.127708	-48.638626	-80.718391
789.539917	11.294272	-78.451164	11.158645
789.938538	-18.487799	-38.704453	-50.904556
790.337158	-20.970362	-51.122467	-60.840809
790.735718	-28.418549	-23.806414	-75.748291
791.134094	-63.189365	-36.221138	-26.071383
791.532532	-11.040870	-120.711906	-48.420860
791.930847	-35.867680	5.978478	-33.520218
792.329224	-58.220898	-38.704453	-3.730546
792.727417	85.684250	-28.771961	-16.141031
793.125610	-48.285095	1.015307	-63.325169
793.523682	-130.306107	28.307194	3.714518
793.921753	-48.285095	1.015307	48.365391
794.319824	-11.040870	23.346029	35.965824
794.717773	-23.453032	23.346029	23.563530
795.115723	8.812963	28.307194	-6.212488
795.513550	-38.350979	3.496945	26.044222
795.911377	-93.009499	28.307194	21.082733
796.309082	-90.523872	-13.876443	48.365391
796.706787	48.500935	1.015307	-21.106064
797.104370	6.331683	-61.058620	65.720566
797.501953	28.660265	-3.948147	-26.071383
797.899536	13.775479	-3.948147	-38.486721
798.296936	-78.097450	-66.027466	-26.071383
798.694397	-3.594883	-16.358812	-40.969997
799.091736	-11.040870	20.865225	-36.003418
799.489014	-40.834385	-28.771961	13.639855
799.886230	21.218338	-41.187870	-36.003418
800.283447	-16.005474	-83.421501	-23.588739
800.680542	-88.038345	-46.154892	-3.730546
801.077637	-23.453032	-58.574493	55.803921
801.474670	-33.384621	10.941098	-31.037258
801.871643	-75.612602	20.865225	-28.554268
802.268555	-11.040870	-38.704453	-58.356552
802.665405	-65.673828	5.978478	-122.980789
803.062256	-38.350979	-36.221138	-18.623495
803.458923	-23.453032	-53.606281	-50.904556
803.855652	-117.871269	-26.289066	28.524675
804.252258	-25.935804	3.496945	-21.106064
804.648804	-35.867680	-125.685875	-83.203606
805.045410	-23.453032	-43.671261	55.803921
805.441833	41.061493	23.346029	-11.176549
805.838257	-68.158394	-23.806414	-48.420860
806.234619	-23.453032	-58.574493	-75.748291
806.630859	-38.350979	-11.394178	-21.106064
807.027100	-33.384621	-43.671261	-28.554268
807.423279	21.218338	-36.221138	-50.904556
807.819458	-38.350979	-75.966293	-6.212488
808.215515	-75.612602	-8.912018	-70.778755
808.611572	-50.768921	-26.289066	-88.174202
809.007507	-20.970362	-53.606281	-90.659729
809.403381	28.660265	-11.394178	-38.486721
809.799194	-25.935804	-48.638626	31.005161
810.195068	36.101257	45.668213	-53.388493
810.590759	-63.189365	53.107075	-31.037258
810.986450	-80.582550	-58.574493	-68.294075
811.382080	-53.252720	-16.358812	-90.659729
811.777649	-23.453032	-26.289066	-38.486721
812.173157	-33.384621	5.978478	-26.071383
812.568665	-45.801373	-11.394178	-26.071383
812.964050	-11.040870	-13.876443	-36.003418
813.359375	-35.867680	-63.542992	-53.388493
813.754639	-16.005474	10.941098	-63.325169
814.149841	-35.867680	-75.966293	-36.003418
814.545105	-75.612602	-28.771961	-31.037258
814.940186	-33.384621	-8.912018	3.714518
815.335266	-45.801373	-90.877663	-40.969997
815.730347	-145.231659	40.708496	-53.388493
816.125244	-30.901531	-38.704453	-31.037258
816.520203	-55.736755	-13.876443	-55.872540
816.914978	-88.038345	1.015307	-26.071383
817.309753	-13.523120	-80.936279	-60.840809
817.704468	-60.705147	-33.738064	-43.453514
818.099182	-102.952950	8.459772	-38.486721
818.493774	-43.317894	-21.323730	-50.904556
818.888367	-68.158394	-38.704453	-16.141031
819.282898	-78.097450	-8.912018	-78.233292
819.677307	-35.867680	-66.027466	-43.453514
820.071716	18.737444	-66.027466	-88.174202
820.466003	-65.673828	-43.671261	3.714518
820.860291	-53.252720	-8.912018	-16.141031
821.254517	-63.189365	-115.738510	11.158645
821.648743	-38.350979	-56.090332	8.677463
822.042786	-8.558860	-46.154892	-1.248708
822.436890	-117.871269	-93.363304	-88.174202
822.830872	-95.495102	-13.876443	26.044222
823.224792	6.331683	-6.430098	-3.730546
823.618774	13.775479	-18.841150	-13.658805
824.012512	-23.453032	-8.912018	-88.174202
824.406311	-6.076819	-48.638626	-3.730546
824.799988	-43.317894	-13.876443	-8.694399
825.193665	-30.901531	-11.394178	-16.141031
825.587280	18.737444	-31.254961	18.601969
825.980835	-53.252720	-48.638626	-26.071383
826.374329	-75.612602	25.826595	43.405899
826.767761	-13.523120	-38.704453	-55.872540
827.161194	-8.558860	-16.358812	-1.248708
827.554443	-65.673828	-51.122467	-50.904556
827.947754	23.699129	33.268078	-31.037258
828.340942	-75.612602	3.496945	-31.037258
828.734131	13.775479	-3.948147	-105.574883
829.127136	-35.867680	-123.198845	-33.520218
829.520264	-78.097450	-21.323730	-43.453514
829.913208	-16.005474	-66.027466	-33.520218
830.306152	28.660265	-90.877663	18.601969
830.699097	-58.220898	-51.122467	-28.554268
831.091797	-13.523120	-28.771961	-16.141031
831.484619	-58.220898	-46.154892	-53.388493
831.877319	-6.076819	-1.466300	-31.037258
832.270020	-16.005474	-66.027466	-33.520218
832.662537	-1.113051	-56.090332	-38.486721
833.055054	-63.189365	-61.058620	-58.356552
833.447510	-55.736755	-53.606281	-33.520218
833.839966	-80.582550	8.459772	-38.486721
834.232361	-70.642929	-58.574493	-11.176549
834.624634	16.256447	-133.147507	-1.248708
835.016907	-20.970362	-63.542992	3.714518
835.409058	21.218338	-83.421501	16.120964
835.801208	-78.097450	-18.841150	-36.003418
836.193298	-55.736755	-53.606281	-13.658805
836.585327	-13.523120	-21.323730	-11.176549
836.977295	-6.076819	-21.323730	28.524675
837.369202	-30.901531	23.346029	-21.106064
837.761047	-63.189365	-100.820747	-16.141031
838.152832	-28.418549	25.826595	28.524675
838.544617	21.218338	-61.058620	-50.904556
838.936218	-48.285095	-23.806414	-28.554268
839.327942	18.737444	-41.187870	-60.840809
839.719421	-45.801373	60.545017	40.925934
840.111023	-60.705147	-68.512047	28.524675
840.502380	-23.453032	-38.704453	-43.453514
840.893860	-13.523120	1.015307	11.158645
841.285217	-8.558860	40.708496	13.639855
841.676453	-1.113051	1.015307	-50.904556
842.067749	-11.040870	-18.841150	-21.106064
842.458862	-20.970362	-36.221138	-50.904556
842.849976	-38.350979	20.865225	-18.623495
843.241028	-43.317894	-23.806414	-3.730546
843.632019	-55.736755	-13.876443	-50.904556
844.022949	-68.158394	-13.876443	31.005161
844.413879	-97.980942	-21.323730	-8.694399
844.804749	-65.673828	-26.289066	-93.145233
845.195496	-78.097450	-61.058620	-13.658805
845.586182	-50.768921	-70.996605	-36.003418
845.976807	-55.736755	-83.421501	70.678200
846.367432	-100.466896	-26.289066	-28.554268
846.757996	-6.076819	-41.187870	-21.106064
847.148499	-23.453032	-90.877663	-55.872540
847.538879	-93.009499	-23.806414	60.762516
847.929260	-11.040870	-18.841150	6.196043
848.319641	-48.285095	-56.090332	60.762516
848.709839	-45.801373	-53.606281	28.524675
849.100098	-28.418549	-51.122467	-28.554268
849.490234	-35.867680	23.346029	-28.554268
849.880310	-1.113051	-48.638626	70.678200
850.270325	41.061493	-1.466300	18.601969
850.660339	-48.285095	-23.806414	-40.969997
851.050171	-45.801373	-66.027466	28.524675
851.440125	1.368541	-21.323730	45.885632
851.829895	-53.252720	-53.606281	33.485542
852.219604	23.699129	-33.738064	33.485542
852.609314	3.850164	80.375092	100.415825
852.998901	-28.418549	-28.771961	-3.730546
853.388550	13.775479	-51.122467	-63.325169
853.778015	41.061493	23.346029	-13.658805
854.167480	-33.384621	-33.738064	-3.730546
854.556885	-45.801373	-73.481392	-6.212488
854.946228	-33.384621	-28.771961	-21.106064
855.335571	-6.076819	-46.154892	70.678200
855.724731	18.737444	15.903437	21.082733
856.113953	31.140745	33.268078	16.120964
856.503052	-18.487799	18.384315	-65.809639
856.892151	-23.453032	-31.254961	-16.141031
857.281067	-70.642929	-3.948147	48.365391
857.670105	-93.009499	-43.671261	-60.840809
858.058960	-55.736755	-90.877663	-13.658805
858.447754	-33.384621	-38.704453	-100.602646
858.836609	-102.952950	-11.394178	-140.391983
859.225281	-53.252720	-105.792862	-125.467827
859.613892	-97.980942	-51.122467	40.925934
860.002502	-88.038345	-11.394178	3.714518
860.391052	3.850164	-48.638626	-65.809639
860.779541	-43.317894	-21.323730	-6.212488
861.167969	-33.384621	-61.058620	-11.176549
861.556335	-70.642929	23.346029	-45.937134
861.944702	-60.705147	-18.841150	-60.840809
862.332947	-18.487799	-43.671261	-48.420860
862.721069	-107.925255	-70.996605	21.082733
863.109253	-68.158394	-28.771961	6.196043
863.497314	-11.040870	-43.671261	65.720566
863.885376	16.256447	-80.936279	-8.694399
864.273315	-6.076819	-28.771961	-36.003418
864.661255	-43.317894	-43.671261	-43.453514
865.049072	-95.495102	-23.806414	-6.212488
865.436890	-45.801373	-51.122467	-26.071383
865.824707	-83.067757	-23.806414	-11.176549
866.212280	-60.705147	48.147984	8.677463
866.599915	-6.076819	-33.738064	-58.356552
866.987488	-78.097450	-95.848923	-90.659729
867.375061	-16.005474	-26.289066	-55.872540
867.762451	-33.384621	-26.289066	-60.840809
868.149841	-28.418549	18.384315	-21.106064
868.537170	-65.673828	-6.430098	-13.658805
868.924438	68.334869	1.015307	-60.840809
869.311707	-11.040870	-28.771961	21.082733
869.698853	-43.317894	-33.738064	6.196043
870.085938	-65.673828	-41.187870	40.925934
870.472961	-8.558860	-93.363304	-13.658805
870.859985	-1.113051	38.228416	3.714518
871.246887	-60.705147	-46.154892	3.714518
871.633789	26.179684	-46.154892	-68.294075
872.020569	-70.642929	-88.392120	-78.233292
872.407349	-70.642929	-11.394178	-113.033890
872.794067	-80.582550	-58.574493	23.563530
873.180725	18.737444	-70.996605	-33.520218
873.567322	-35.867680	-31.254961	-43.453514
873.953796	-65.673828	-66.027466	-3.730546
874.340332	-48.285095	-6.430098	-53.388493
874.726624	11.294272	10.941098	-53.388493
875.113037	33.620987	-38.704453	26.044222
875.499329	-33.384621	-31.254961	68.199501
875.885559	8.812963	-13.876443	1.233025
876.271729	-60.705147	-98.334778	-40.969997
876.657898	-75.612602	10.941098	-60.840809
877.044006	1.368541	23.346029	-90.659729
877.429932	-28.418549	-100.820747	-18.623495
877.815918	-70.642929	-125.685875	-16.141031
878.201782	-18.487799	-26.289066	-21.106064
878.587585	-63.189365	3.496945	-31.037258
878.973389	-43.317894	1.015307	-21.106064
879.359070	-70.642929	-38.704453	132.614929
879.744751	-30.901531	-23.806414	-43.453514
880.130310	-65.673828	-63.542992	-115.520493
880.515930	36.101257	-21.323730	13.639855
880.901367	-35.867680	-23.806414	-33.520218
881.286804	-93.009499	-33.738064	18.601969
881.672180	-38.350979	-73.481392	11.158645
882.057434	-58.220898	-66.027466	28.524675
882.442749	-95.495102	-8.912018	-60.840809
882.827942	-73.127708	-6.430098	16.120964
883.213013	-95.495102	-70.996605	-18.623495
883.598145	-13.523120	1.015307	-18.623495
883.983154	-58.220898	1.015307	3.714518
884.368042	-70.642929	-58.574493	-50.904556
884.753052	-35.867680	-11.394178	-43.453514
885.137817	-6.076819	-66.027466	21.082733
885.522644	-65.673828	67.982033	-3.730546
885.907349	-11.040870	-80.936279	-85.688789
886.292053	-75.612602	-8.912018	-6.212488
886.676636	-50.768921	-93.363304	-45.937134
887.061157	-3.594883	-43.671261	1.233025
887.445740	-25.935804	20.865225	-16.141031
887.830078	-58.220898	-46.154892	-88.174202
888.214539	1.368541	-113.251907	-33.520218
888.598816	-88.038345	-53.606281	31.005161
888.983093	-60.705147	-98.334778	-38.486721
889.367249	-90.523872	-26.289066	-31.037258
889.751465	-48.285095	-83.421501	-55.872540
890.135498	33.620987	-1.466300	-23.588739
890.519531	-8.558860	-21.323730	-40.969997
890.903503	18.737444	-85.906693	11.158645
891.287415	-33.384621	-38.704453	26.044222
891.671326	-85.553062	-38.704453	-48.420860
892.055054	38.581429	-78.451164	-43.453514
892.438843	31.140745	-56.090332	-70.778755
892.822510	-1.113051	-43.671261	-28.554268
893.206116	-11.040870	-21.323730	45.885632
893.589661	8.812963	10.941098	-98.116829
893.973206	3.850164	25.826595	3.714518
894.356628	-23.453032	-3.948147	-33.520218
894.739990	11.294272	-33.738064	16.120964
895.123352	-25.935804	28.307194	-43.453514
895.506592	-23.453032	-8.912018	1.233025
895.889832	13.775479	-13.876443	-53.388493
896.272949	-3.594883	-48.638626	-16.141031
896.656067	-70.642929	45.668213	23.563530
897.039063	-38.350979	-26.289066	-6.212488
897.422058	-13.523120	50.627647	-75.748291
897.804993	-48.285095	-46.154892	-8.694399
898.187866	-48.285095	-3.948147	-58.356552
898.570618	-33.384621	-41.187870	-3.730546
898.953369	-45.801373	-123.198845	-53.388493
899.336121	-35.867680	-28.771961	-48.420860
899.718689	-97.980942	-31.254961	-48.420860
900.101257	-45.801373	-46.154892	-33.520218
900.483704	-25.935804	-8.912018	-80.718391
900.866211	-33.384621	-31.254961	-33.520218
901.248596	-78.097450	-36.221138	-70.778755
901.630920	-35.867680	-78.451164	3.714518
902.013184	-33.384621	18.384315	21.082733
902.395386	-55.736755	-110.765541	1.233025
902.777588	-63.189365	-103.306679	-38.486721
903.159668	-45.801373	-110.765541	-60.840809
903.541687	-11.040870	-80.936279	-40.969997
903.923645	28.660265	-85.906693	18.601969
904.305603	-90.523872	-16.358812	-90.659729
904.687500	11.294272	-23.806414	8.677463
905.069275	-35.867680	-18.841150	3.714518
905.451050	-127.819008	-36.221138	-43.453514
905.832642	18.737444	-83.421501	-65.809639
906.214294	-11.040870	-46.154892	-3.730546
906.595825	18.737444	-48.638626	-21.106064
906.977417	43.541321	-61.058620	-38.486721
907.358826	-70.642929	-80.936279	33.485542
907.740234	-45.801373	-43.671261	-31.037258
908.121582	-112.897980	-33.738064	-50.904556
908.502869	8.812963	-13.876443	-28.554268
908.884033	16.256447	13.422318	-11.176549
909.265198	-28.418549	-11.394178	-38.486721
909.646301	41.061493	-98.334778	-26.071383
910.027344	-1.113051	-3.948147	26.044222
910.408325	18.737444	-36.221138	13.639855
910.789246	-8.558860	23.346029	-1.248708
911.170105	-40.834385	-61.058620	-33.520218
911.550903	13.775479	-11.394178	21.082733
911.931641	1.368541	-23.806414	-40.969997
912.312317	-6.076819	5.978478	-58.356552
912.692932	-75.612602	20.865225	-8.694399
913.073547	-48.285095	-13.876443	-13.658805
913.453979	6.331683	-31.254961	11.158645
913.834473	-45.801373	-31.254961	-36.003418
914.214783	-95.495102	-43.671261	-50.904556
914.595154	-53.252720	40.708496	40.925934
914.975464	-70.642929	60.545017	-63.325169
915.355652	-35.867680	-33.738064	-18.623495
915.735840	-70.642929	-133.147507	-98.116829
916.115845	-63.189365	-28.771961	-50.904556
916.495972	-65.673828	-36.221138	-73.263535
916.875854	-23.453032	-63.542992	-13.658805
917.255859	21.218338	3.496945	-33.520218
917.635620	-30.901531	-23.806414	33.485542
918.015503	-50.768921	-13.876443	65.720566
918.395203	-68.158394	-21.323730	-50.904556
918.774902	-38.350979	-56.090332	-88.174202
919.154480	8.812963	-36.221138	1.233025
919.534058	-25.935804	-61.058620	-78.233292
919.913574	-30.901531	-43.671261	-43.453514
920.292969	-11.040870	-21.323730	-6.212488
920.672363	-73.127708	-11.394178	-45.937134
921.051636	-50.768921	-48.638626	-33.520218
921.430969	-1.113051	-18.841150	18.601969
921.810181	-23.453032	-18.841150	-11.176549
922.189331	3.850164	-70.996605	-100.602646
922.568420	-23.453032	-33.738064	-36.003418
922.947388	-33.384621	35.748230	-8.694399
923.326416	-50.768921	-48.638626	-23.588739
923.705261	-65.673828	-43.671261	-90.659729
924.084106	23.699129	-13.876443	-28.554268
924.462891	-28.418549	-18.841150	-68.294075
924.841675	-43.317894	-73.481392	-40.969997
925.220337	-90.523872	-33.738064	-16.141031
925.598938	36.101257	77.896660	-70.778755
925.977478	-40.834385	-41.187870	-100.602646
926.355957	-43.317894	-58.574493	65.720566
926.734436	-83.067757	-41.187870	3.714518
927.112732	-70.642929	8.459772	-38.486721
927.491089	-90.523872	-128.173019	-90.659729
927.869324	-8.558860	63.024170	-33.520218
928.247559	-38.350979	-53.606281	-58.356552
928.625671	-95.495102	-58.574493	-36.003418
929.003723	-83.067757	15.903437	-18.623495
929.381775	-50.768921	28.307194	-103.088707
929.759705	16.256447	18.384315	-105.574883
930.137634	6.331683	-43.671261	-31.037258
930.515381	-40.834385	-36.221138	-68.294075
930.893250	-33.384621	-46.154892	13.639855
931.270935	16.256447	-16.358812	-23.588739
931.648560	-25.935804	-61.058620	-33.520218
932.026123	-50.768921	-73.481392	48.365391
932.403687	-43.317894	-61.058620	-36.003418
932.781250	-25.935804	10.941098	26.044222
933.158630	-50.768921	23.346029	-6.212488
933.536011	-53.252720	-46.154892	-63.325169
933.913208	-33.384621	1.015307	-33.520218
934.290527	-63.189365	-41.187870	-26.071383
934.667664	13.775479	-11.394178	23.563530
935.044800	1.368541	-41.187870	-8.694399
935.421814	-11.040870	-75.966293	-13.658805
935.798889	-58.220898	-18.841150	-33.520218
936.175842	-38.350979	-11.394178	-48.420860
936.552673	-50.768921	-43.671261	-23.588739
936.929504	-33.384621	-90.877663	-40.969997
937.306274	1.368541	-70.996605	-63.325169
937.683044	-58.220898	8.459772	-18.623495
938.059570	6.331683	20.865225	-33.520218
938.436218	-78.097450	-48.638626	-31.037258
938.812744	-73.127708	-63.542992	3.714518
939.189148	-16.005474	-13.876443	-80.718391
939.565613	-8.558860	18.384315	-16.141031
939.941956	3.850164	-23.806414	-58.356552
940.318237	-58.220898	-95.848923	-43.453514
940.694458	-125.331871	-36.221138	13.639855
941.070557	-1.113051	18.384315	-118.007065
941.446655	-100.466896	-8.912018	-18.623495
941.822693	-33.384621	-95.848923	16.120964
942.198669	-18.487799	-46.154892	-58.356552
942.574646	38.581429	20.865225	-122.980789
942.950562	-63.189365	-98.334778	-88.174202
943.326294	-11.040870	-110.765541	-80.718391
943.702026	8.812963	3.496945	-16.141031
944.077698	28.660265	-36.221138	-113.033890
944.453369	-20.970362	33.268078	-40.969997
944.828918	-3.594883	-38.704453	3.714518
945.204468	33.620987	-68.512047	-48.420860
945.579834	-70.642929	-108.279152	58.283272
945.955261	-100.466896	-80.936279	-48.420860
946.330627	-68.158394	-105.792862	-33.520218
946.705811	-20.970362	-93.363304	-63.325169
947.081055	-83.067757	-46.154892	16.120964
947.456177	-83.067757	-90.877663	43.405899
947.831238	-11.040870	-13.876443	55.803921
948.206238	-43.317894	-88.392120	-50.904556
948.581238	-70.642929	15.903437	-50.904556
948.956116	-30.901531	-63.542992	-21.106064
949.330933	-6.076819	-46.154892	-6.212488
949.705811	-90.523872	-8.912018	-75.748291
950.080505	-13.523120	-28.771961	-65.809639
950.455139	-78.097450	-13.876443	1.233025
950.829773	-25.935804	30.787687	-45.937134
951.204346	73.292419	3.496945	-31.037258
951.578735	1.368541	-28.771961	-68.294075
951.953186	-8.558860	-26.289066	-58.356552
952.327515	-8.558860	-6.430098	21.082733
952.701843	-8.558860	33.268078	-50.904556
953.076172	-45.801373	15.903437	-65.809639
953.450195	-53.252720	-41.187870	-31.037258
953.824341	-23.453032	-83.421501	-63.325169
954.198486	33.620987	-1.466300	-43.453514
954.572449	18.737444	1.015307	-45.937134
954.946350	-100.466896	-38.704453	-36.003418
955.320251	31.140745	25.826595	-38.486721
955.694092	-53.252720	-51.122467	-45.937134
956.067871	-102.952950	-53.606281	16.120964
956.441589	-70.642929	-11.394178	-83.203606
956.815125	-28.418549	-63.542992	-88.174202
957.188721	-85.553062	-56.090332	-83.203606
957.562256	-88.038345	-61.058620	-38.486721
957.935730	-45.801373	-93.363304	-50.904556
958.309021	-8.558860	-75.966293	-40.969997
958.682373	-73.127708	-83.421501	16.120964
959.055664	-8.558860	-33.738064	-31.037258
959.428955	3.850164	-36.221138	-31.037258
959.802063	-40.834385	-85.906693	-18.623495
960.175110	-40.834385	1.015307	-21.106064
960.548157	6.331683	-73.481392	16.120964
960.921143	-78.097450	-115.738510	-40.969997
961.294128	-43.317894	-105.792862	3.714518
961.666809	-43.317894	-21.323730	-8.694399
962.039612	-50.768921	3.496945	-90.659729
962.412415	-100.466896	-21.323730	-78.233292
962.785095	3.850164	-53.606281	-122.980789
963.157715	-60.705147	-8.912018	-55.872540
963.530151	-55.736755	-48.638626	8.677463
963.902649	-65.673828	-11.394178	-73.263535
964.275146	38.581429	40.708496	23.563530
964.647522	31.140745	-63.542992	50.845047
965.019714	-3.594883	-95.848923	-33.520218
965.392029	-28.418549	-43.671261	-40.969997
965.764160	53.459999	1.015307	-58.356552
966.136292	-6.076819	1.015307	-55.872540
966.508423	-20.970362	87.809639	-73.263535
966.880371	-28.418549	-38.704453	-8.694399
967.252319	-60.705147	-18.841150	-48.420860
967.624207	-147.719498	20.865225	-80.718391
967.996094	-25.935804	-26.289066	35.965824
968.367737	-18.487799	-100.820747	3.714518
968.739441	-11.040870	-61.058620	-40.969997
969.111084	33.620987	-33.738064	6.196043
969.482666	-63.189365	-66.027466	-6.212488
969.854248	-8.558860	-23.806414	-18.623495
970.225586	-70.642929	-31.254961	31.005161
970.596985	-58.220898	-16.358812	-58.356552
970.968323	-40.834385	1.015307	-48.420860
971.339661	-85.553062	23.346029	-100.602646
971.710754	-75.612602	-61.058620	40.925934
972.081909	26.179684	-66.027466	-38.486721
972.453064	-38.350979	-105.792862	-55.872540
972.824097	-43.317894	-36.221138	-13.658805
973.194946	-43.317894	-115.738510	8.677463
973.565918	-3.594883	-18.841150	-11.176549
973.936768	-53.252720	-8.912018	-45.937134
974.307556	-58.220898	-61.058620	-3.730546
974.678284	-97.980942	8.459772	-45.937134
975.048828	-48.285095	-18.841150	28.524675
975.419495	-97.980942	-88.392120	63.241524
975.790039	-58.220898	-1.466300	-118.007065
976.160522	-16.005474	-68.512047	-73.263535
976.530884	-18.487799	-28.771961	-93.145233
976.901245	-48.285095	-23.806414	-48.420860
977.271606	-45.801373	-51.122467	1.233025
977.641846	28.660265	-63.542992	-31.037258
978.012024	11.294272	-23.806414	-93.145233
978.382019	21.218338	-16.358812	-38.486721
978.752136	-50.768921	-16.358812	-3.730546
979.122131	-16.005474	3.496945	-43.453514
979.492065	-93.009499	3.496945	-33.520218
979.861877	-58.220898	23.346029	26.044222
980.231689	-65.673828	-68.512047	-45.937134
980.601440	-75.612602	-63.542992	-40.969997
980.971191	-50.768921	-26.289066	-36.003418
981.340820	-53.252720	-3.948147	-55.872540
981.710266	-1.113051	-78.451164	-63.325169
982.079773	-8.558860	-1.466300	-78.233292
982.449280	18.737444	30.787687	-11.176549
982.818604	-53.252720	25.826595	-13.658805
983.187866	-45.801373	-36.221138	-55.872540
983.557129	-88.038345	-108.279152	-33.520218
983.926331	3.850164	-8.912018	-11.176549
984.295471	-8.558860	-83.421501	3.714518
984.664612	-43.317894	-63.542992	58.283272
985.033569	26.179684	-41.187870	-103.088707
985.402527	-11.040870	-85.906693	-60.840809
985.771362	-18.487799	-1.466300	-85.688789
986.140259	-50.768921	-41.187870	-68.294075
986.508911	-28.418549	-38.704453	-18.623495
986.877625	-120.358078	-21.323730	40.925934
987.246277	-97.980942	-125.685875	-31.037258
987.614929	-68.158394	-3.948147	-65.809639
987.983459	-80.582550	-73.481392	-63.325169
988.351807	-30.901531	-103.306679	-36.003418
988.720215	1.368541	-46.154892	-43.453514
989.088623	-102.952950	-73.481392	-13.658805
989.456909	23.699129	-48.638626	1.233025
989.825012	-16.005474	-98.334778	-3.730546
990.193115	-55.736755	-23.806414	-48.420860
990.561279	-8.558860	-56.090332	-60.840809
990.929321	-55.736755	40.708496	6.196043
991.297302	6.331683	3.496945	45.885632
991.665100	-20.970362	-33.738064	-23.588739
992.033020	3.850164	-53.606281	-38.486721
992.400818	-28.418549	77.896660	-1.248708
992.768494	38.581429	3.496945	-48.420860
993.136047	-40.834385	-51.122467	-50.904556
993.503723	-50.768921	-46.154892	-8.694399
993.871277	-16.005474	-78.451164	-36.003418
994.238770	41.061493	10.941098	95.460648
994.606140	-48.285095	-13.876443	8.677463
994.973450	23.699129	8.459772	28.524675
995.340759	-20.970362	-51.122467	-65.809639
995.708008	13.775479	-48.638626	-88.174202
996.075195	-93.009499	-41.187870	-38.486721
996.442200	-55.736755	-68.512047	-38.486721
996.809265	-6.076819	-16.358812	-11.176549
997.176270	-1.113051	-56.090332	-50.904556
997.543152	-18.487799	-41.187870	-16.141031
997.910095	-33.384621	-75.966293	-70.778755
998.276733	-35.867680	-26.289066	-33.520218
998.643494	-45.801373	-48.638626	-33.520218
999.010193	-33.384621	-48.638626	-65.809639
999.376831	-53.252720	-43.671261	-53.388493
999.743286	18.737444	5.978478	-1.248708
1000.109802	-43.317894	-28.771961	16.120964
1000.476257	-48.285095	-3.948147	-28.554268
1000.842651	33.620987	-31.254961	-16.141031
1001.208923	-88.038345	-63.542992	-58.356552
1001.575134	-53.252720	-23.806414	8.677463
1001.941284	-65.673828	1.015307	-45.937134
1002.307434	3.850164	-1.466300	-23.588739
1002.673523	-53.252720	-28.771961	-6.212488
1003.039429	-80.582550	-51.122467	-33.520218
1003.405334	-53.252720	-43.671261	-18.623495
1003.771179	-105.438980	-58.574493	-55.872540
1004.137024	18.737444	-6.430098	6.196043
1004.502808	-68.158394	-16.358812	-18.623495
1004.868408	16.256447	-18.841150	-33.520218
1005.234009	16.256447	-75.966293	-93.145233
1005.599609	-8.558860	-11.394178	-28.554268
1005.965149	-63.189365	8.459772	-33.520218
1006.330444	-20.970362	1.015307	-85.688789
1006.695862	-45.801373	-41.187870	-48.420860
1007.061218	-30.901531	-68.512047	-18.623495
1007.426453	23.699129	-98.334778	-48.420860
1007.791626	-45.801373	-26.289066	-43.453514
1008.156677	-13.523120	-33.738064	16.120964
1008.521729	-8.558860	-18.841150	-55.872540
1008.886780	-28.418549	-21.323730	1.233025
1009.251709	-53.252720	-103.306679	-65.809639
1009.616577	-40.834385	-21.323730	-55.872540
1009.981384	-45.801373	-33.738064	-75.748291
1010.346130	-100.466896	-21.323730	-103.088707
1010.710754	8.812963	-1.466300	-43.453514
1011.075439	-16.005474	48.147984	-45.937134
1011.439941	28.660265	-75.966293	-68.294075
1011.804443	-16.005474	-58.574493	21.082733
1012.168884	-60.705147	-21.323730	-3.730546
1012.533325	-43.317894	-51.122467	-63.325169
1012.897522	-28.418549	-61.058620	-53.388493
1013.261780	13.775479	-28.771961	35.965824
1013.626038	1.368541	-78.451164	-43.453514
1013.990112	-73.127708	-46.154892	-21.106064
1014.354187	-53.252720	-3.948147	-23.588739
1014.718140	53.459999	-46.154892	-60.840809
1015.082153	-16.005474	-75.966293	-50.904556
1015.446045	43.541321	-31.254961	35.965824
1015.809937	-110.411629	-75.966293	-28.554268
1016.173523	-105.438980	-28.771961	-58.356552
1016.537170	-45.801373	-70.996605	-53.388493
1016.900879	-25.935804	-56.090332	-65.809639
1017.264404	-20.970362	-23.806414	-38.486721
1017.627991	-3.594883	28.307194	-75.748291
1017.991333	-83.067757	-23.806414	-118.007065
1018.354675	-28.418549	-16.358812	-78.233292
1018.718018	-55.736755	-16.358812	-98.116829
1019.081299	-40.834385	-48.638626	35.965824
1019.444397	68.334869	-53.606281	16.120964
1019.807495	-53.252720	-3.948147	-38.486721
1020.170593	-33.384621	25.826595	-33.520218
1020.533691	3.850164	-68.512047	-38.486721
1020.896606	-30.901531	-28.771961	-78.233292
1021.259460	-68.158394	-11.394178	6.196043
1021.622253	1.368541	-43.671261	-23.588739
1021.985046	-68.158394	-13.876443	-8.694399
1022.347778	-38.350979	1.015307	-118.007065
1022.710327	-107.925255	-38.704453	-78.233292
1023.072876	18.737444	1.015307	-105.574883
1023.435364	-25.935804	-38.704453	-1.248708
1023.797852	-78.097450	-58.574493	-21.106064
1024.160278	-25.935804	-18.841150	-33.520218
1024.522461	-45.801373	-26.289066	-53.388493
1024.884766	-55.736755	-18.841150	-50.904556
1025.246948	-43.317894	35.748230	-11.176549
1025.609131	-70.642929	18.384315	-63.325169
1025.971069	-73.127708	-18.841150	-6.212488
1026.333130	-11.040870	-66.027466	-6.212488
1026.694946	-88.038345	-11.394178	-21.106064
1027.056885	1.368541	-75.966293	-8.694399
1027.418823	21.218338	-68.512047	-13.658805
1027.780396	-78.097450	-70.996605	23.563530
1028.142090	28.660265	-31.254961	-23.588739
1028.503784	-93.009499	-36.221138	-28.554268
1028.865479	-25.935804	-53.606281	-3.730546
1029.226807	-3.594883	-41.187870	-11.176549
1029.588135	6.331683	-28.771961	-18.623495
1029.949707	-43.317894	-63.542992	-58.356552
1030.310913	-25.935804	-78.451164	-11.176549
1030.672241	-40.834385	-75.966293	-63.325169
1031.033325	-35.867680	18.384315	-16.141031
1031.394531	-35.867680	-118.225227	-13.658805
1031.755493	-8.558860	-13.876443	-53.388493
1032.116577	-132.793457	55.586540	-58.356552
1032.477417	50.980453	-43.671261	48.365391
1032.838257	-93.009499	-6.430098	-8.694399
1033.199097	13.775479	-21.323730	-58.356552
1033.559937	1.368541	-85.906693	-26.071383
1033.920654	33.620987	38.228416	-26.071383
1034.281128	46.021179	-33.738064	-83.203606
1034.641724	-78.097450	-11.394178	-23.588739
1035.002197	-16.005474	-46.154892	-21.106064
1035.362671	-16.005474	-53.606281	-73.263535
1035.722900	-11.040870	10.941098	-78.233292
1036.083252	-60.705147	-103.306679	-28.554268
1036.443481	-60.705147	-73.481392	-68.294075
1036.803711	-43.317894	-95.848923	-73.263535
1037.163940	-11.040870	-41.187870	-45.937134
1037.523804	60.897896	18.384315	-33.520218
1037.883789	-45.801373	-21.323730	-31.037258
1038.243774	-50.768921	-63.542992	-38.486721
1038.603638	-48.285095	-38.704453	6.196043
1038.963257	-45.801373	-56.090332	-65.809639
1039.323120	-45.801373	28.307194	31.005161
1039.682861	-58.220898	5.978478	-21.106064
>>>>>End Processed Spectral Data<<<<<
