Jaz Data File
++++++++++++++++++++++++++++++++++++
Date: Tue Dec 09 09:55:04 2014
User: jaz
Dark Spectrum Present: Yes
Reference Spectrum Present: Yes
Processed Spectrum Present: No
Spectrometers: JAZA2310
Integration Time (usec): 15000 (JAZA2310)
Spectra Averaged: 1 (JAZA2310)
Boxcar Smoothing: 0 (JAZA2310)
Correct for Electrical Dark: Yes (JAZA2310)
Strobe/Lamp Enabled: No (JAZA2310)
Correct for Detector Non-linearity: Yes (JAZA2310)
Correct for Stray Light: No (JAZA2310)
Number of Pixels in Processed Spectrum: 2048
>>>>>Begin Processed Spectral Data<<<<<
W	D	R	S
188.301102	0.000000	0.000000	0.000000
188.764923	0.000000	0.000000	0.000000
189.228699	-28.602615	-65.236816	-26.153893
189.692459	-68.342453	-80.145561	-85.771378
190.156158	16.072655	31.576902	-63.407593
190.619812	-8.742728	-13.086497	6.113579
191.083435	6.147725	-42.881050	6.113579
191.547043	38.397568	-15.568833	1.150554
192.010590	45.837345	4.286657	23.481091
192.474091	-98.165230	-42.881050	-18.705994
192.937561	68.151237	61.333969	-3.812888
193.401001	38.397568	86.120140	-6.294834
193.864410	-6.260815	-8.122274	8.595003
194.327759	-23.637081	-5.640252	65.638184
194.791077	-68.342453	43.977524	11.076322
195.254349	33.437248	46.457363	-11.259038
195.717575	-1.297032	4.286657	-46.019539
196.180786	53.276192	39.017666	21.000425
196.643951	13.591545	-13.086497	23.481091
197.107071	-38.535076	-3.158469	-46.019539
197.570145	48.317108	-40.397556	-18.705994
198.033203	33.437248	4.286657	40.843517
198.496216	-6.260815	14.211764	-8.776884
198.959167	21.034428	-5.640252	53.242207
199.422089	21.034428	11.730711	33.403114
199.884979	-48.469223	-42.881050	-78.315872
200.347855	-6.260815	-5.640252	-53.471043
200.810654	-21.154404	4.286657	30.922867
201.273422	-3.778872	29.096577	-41.052528
201.736160	-26.119728	-13.086497	58.200878
202.198853	13.591545	51.416599	-1.331183
202.661514	-83.251991	-13.086497	-73.345978
203.124130	55.755642	51.416599	40.843517
203.586700	-50.952923	-45.364647	-48.503269
204.049240	-125.516251	-37.914173	-6.294834
204.511734	63.193253	11.730711	-13.741162
204.974197	-33.568565	-52.815933	33.403114
205.436615	-16.189367	68.770889	-38.569115
205.899002	1.184703	-10.604401	-21.188433
206.361343	-70.827133	56.375423	-95.713585
206.823654	-8.742728	1.805053	-11.259038
207.285919	-58.404926	26.616011	-68.376640
207.748123	-1.297032	6.768023	-28.636646
208.210327	-13.707139	26.616011	-3.812888
208.672485	-73.311920	-0.676656	-105.657364
209.134583	-55.920906	-45.364647	-6.294834
209.596649	-18.671833	-37.914173	3.632186
210.058670	-33.568565	-52.815933	-1.331183
210.520676	-45.985493	-30.464781	-73.345978
210.982635	-8.742728	-27.981951	-26.153893
211.444534	-38.535076	-0.676656	16.038515
211.906403	-75.796677	-20.533821	11.076322
212.368240	-45.985493	68.770889	-38.569115
212.830048	-11.224882	-8.122274	25.961786
213.291779	-21.154404	-42.881050	11.076322
213.753494	-21.154404	19.173828	-70.861320
214.215179	-21.154404	14.211764	-50.987103
214.676819	-75.796677	58.854752	-1.331183
215.138412	30.956865	36.537514	-93.227837
215.599960	-45.985493	-25.499090	38.363579
216.061493	-23.637081	-95.057999	-48.503269
216.522949	-45.985493	-37.914173	-63.407593
216.984406	16.072655	36.537514	-13.741162
217.445801	-41.018353	-23.016335	-48.503269
217.907166	-23.637081	-0.676656	-38.569115
218.368484	-118.055481	-15.568833	-43.536049
218.829773	-80.766777	-62.752510	25.961786
219.291031	-38.535076	-5.640252	-73.345978
219.752228	-23.637081	-60.268173	-3.812888
220.213379	48.317108	24.135342	-41.052528
220.674500	-28.602615	-72.690643	-33.602737
221.135574	-28.602615	-37.914173	-58.439106
221.596634	-43.501873	91.076096	-93.227837
222.057648	-55.920906	-0.676656	-28.636646
222.518600	-21.154404	-13.086497	-88.256668
222.979553	18.553661	-42.881050	-43.536049
223.440430	-98.165230	-18.051275	-41.052528
223.901276	-23.637081	-52.815933	50.762650
224.362076	-6.260815	-18.051275	28.442379
224.822845	-41.018353	51.416599	-26.153893
225.283569	-3.778872	24.135342	16.038515
225.744278	-11.224882	26.616011	23.481091
226.204910	-123.029221	61.333969	-105.657364
226.665512	53.276192	-15.568833	13.557538
227.126114	-36.051769	-27.981951	-18.705994
227.586639	11.110331	-40.397556	-31.119638
228.047119	-88.222603	-13.086497	-18.705994
228.507568	30.956865	11.730711	-55.954956
228.967972	-38.535076	11.730711	60.680130
229.428345	-16.189367	-20.533821	-53.471043
229.888687	-38.535076	-10.604401	-68.376640
230.348984	-11.224882	9.249419	23.481091
230.809219	28.476376	68.770889	-28.636646
231.269440	3.666199	53.896133	-58.439106
231.729614	3.666199	-15.568833	48.283123
232.189758	6.147725	53.896133	8.595003
232.649841	-38.535076	-60.268173	-63.407593
233.109894	-31.085606	-72.690643	-41.052528
233.569901	-95.679382	-27.981951	-43.536049
234.029892	68.151237	-25.499090	18.519522
234.489822	-36.051769	36.537514	-38.569115
234.949707	-21.154404	1.805053	-6.294834
235.409561	-23.637081	31.576902	-1.331183
235.869385	-3.778872	-82.630608	33.403114
236.329163	-36.051769	29.096577	-11.259038
236.788895	-80.766777	-65.236816	-28.636646
237.248581	-88.222603	-52.815933	1.150554
237.708237	-1.297032	-8.122274	-18.705994
238.167847	-50.952923	26.616011	-78.315872
238.627441	-16.189367	29.096577	-11.259038
239.086960	-33.568565	43.977524	8.595003
239.546463	-6.260815	-18.051275	-60.923367
240.005920	-75.796677	41.497578	-18.705994
240.465332	-53.436863	-13.086497	-18.705994
240.924698	-78.281677	-35.431026	1.150554
241.384033	-50.952923	24.135342	-53.471043
241.843338	-78.281677	-8.122274	-3.812888
242.302597	-6.260815	-75.175514	-78.315872
242.761810	3.666199	-13.086497	-85.771378
243.220993	-1.297032	6.768023	1.150554
243.680115	-65.858009	19.173828	-78.315872
244.139221	-115.568916	-30.464781	16.038515
244.598282	1.184703	76.206879	-43.536049
245.057297	-38.535076	-62.752510	-3.812888
245.516266	-31.085606	-35.431026	-28.636646
245.975189	35.917530	41.497578	-8.776884
246.434082	-8.742728	6.768023	-28.636646
246.892944	-18.671833	36.537514	-18.705994
247.351761	-65.858009	6.768023	48.283123
247.810516	-45.985493	6.768023	-16.223526
248.269272	-3.778872	-18.051275	-16.223526
248.727951	-28.602615	-0.676656	-83.286057
249.186600	-18.671833	1.805053	-26.153893
249.645218	-80.766777	39.017666	63.159271
250.103790	-1.297032	-35.431026	8.595003
250.562317	-31.085606	73.728271	3.632186
251.020813	-18.671833	58.854752	-23.671110
251.479279	-70.827133	-60.268173	16.038515
251.937668	-1.297032	81.163788	-1.331183
252.396057	-125.516251	21.654705	23.481091
252.854385	-43.501873	-13.086497	-75.830872
253.312683	-11.224882	6.768023	18.519522
253.770920	6.147725	-32.947849	-21.188433
254.229126	-36.051769	-27.981951	48.283123
254.687302	-26.119728	98.509460	-108.143646
255.145432	-31.085606	-52.815933	-73.345978
255.603500	-8.742728	-0.676656	-28.636646
256.061584	16.072655	-60.268173	-13.741162
256.519592	-105.623291	-37.914173	-18.705994
256.977570	-11.224882	14.211764	11.076322
257.435455	-41.018353	-13.086497	53.242207
257.893372	-28.602615	118.326874	-110.630035
258.351196	11.110331	19.173828	-3.812888
258.808990	-21.154404	-0.676656	16.038515
259.266754	-33.568565	-27.981951	-38.569115
259.724487	-23.637081	-50.332020	1.150554
260.182190	-13.707139	9.249419	53.242207
260.639832	-3.778872	-42.881050	-145.450180
261.097443	-36.051769	-32.947849	-43.536049
261.554993	8.629148	21.654705	23.481091
262.012512	6.147725	-5.640252	-13.741162
262.469971	28.476376	6.768023	-1.331183
262.927429	-23.637081	9.249419	3.632186
263.384827	6.147725	43.977524	-55.954956
263.842194	-6.260815	-23.016335	-50.987103
264.299530	-41.018353	36.537514	-90.742203
264.756805	-18.671833	-27.981951	-21.188433
265.214050	-8.742728	29.096577	38.363579
265.671234	-103.137115	-18.051275	-28.636646
266.128387	-23.637081	-87.601303	-43.536049
266.585510	-58.404926	-55.299820	43.323486
267.042572	-13.707139	19.173828	1.150554
267.499573	-132.977844	-67.721367	-23.671110
267.956604	-41.018353	-82.630608	-43.536049
268.413574	-50.952923	6.768023	-75.830872
268.870483	-95.679382	-13.086497	-63.407593
269.327362	-33.568565	-5.640252	-31.119638
269.784180	11.110331	-13.086497	16.038515
270.240936	-6.260815	-40.397556	25.961786
270.697693	-33.568565	-52.815933	-113.116531
271.154419	-23.637081	-30.464781	-60.923367
271.611053	-78.281677	34.057262	-38.569115
272.067688	-80.766777	21.654705	-65.892067
272.524292	-31.085606	-13.086497	-26.153893
272.980835	-55.920906	110.896088	-63.407593
273.437347	-21.154404	-65.236816	16.038515
273.893799	-73.311920	-32.947849	-6.294834
274.350250	-103.137115	-20.533821	1.150554
274.806610	-28.602615	26.616011	-1.331183
275.262939	-36.051769	24.135342	-13.741162
275.719238	-3.778872	14.211764	-75.830872
276.175507	-45.985493	-45.364647	21.000425
276.631714	-13.707139	-35.431026	3.632186
277.087891	-70.827133	86.120140	-31.119638
277.544067	33.437248	31.576902	-3.812888
278.000122	-21.154404	11.730711	6.113579
278.456177	-38.535076	11.730711	-26.153893
278.912201	-95.679382	-8.122274	-38.569115
279.368164	-36.051769	-85.115906	-18.705994
279.824097	33.437248	-65.236816	1.150554
280.279968	6.147725	-32.947849	-33.602737
280.735840	45.837345	21.654705	-63.407593
281.191620	-8.742728	14.211764	-33.602737
281.647400	30.956865	21.654705	-31.119638
282.103149	75.587303	24.135342	-8.776884
282.558838	-3.778872	-8.122274	-33.602737
283.014465	-21.154404	31.576902	18.519522
283.470062	-26.119728	-13.086497	-63.407593
283.925629	-63.373543	34.057262	-83.286057
284.381134	-53.436863	-50.332020	-21.188433
284.836639	3.666199	-72.690643	-11.259038
285.292053	-120.542297	26.616011	-58.439106
285.747467	-38.535076	-30.464781	3.632186
286.202820	-58.404926	-65.236816	-36.085941
286.658142	-6.260815	4.286657	38.363579
287.113434	-13.707139	81.163788	-38.569115
287.568634	11.110331	-23.016335	-1.331183
288.023804	-26.119728	-35.431026	-1.331183
288.478973	-36.051769	-82.630608	-78.315872
288.934113	16.072655	-70.206017	-55.954956
289.389130	-95.679382	-35.431026	-38.569115
289.844208	-28.602615	26.616011	-48.503269
290.299164	-53.436863	34.057262	-43.536049
290.754089	-38.535076	-23.016335	-1.331183
291.208984	-23.637081	58.854752	-60.923367
291.663879	-31.085606	-10.604401	6.113579
292.118683	-90.708138	-15.568833	-26.153893
292.573456	-33.568565	36.537514	-3.812888
293.028198	-11.224882	-85.115906	-50.987103
293.482849	8.629148	76.206879	-53.471043
293.937561	-95.679382	1.805053	16.038515
294.392151	-63.373543	-35.431026	-31.119638
294.846741	3.666199	-55.299820	-3.812888
295.301239	-60.889179	-47.848213	58.200878
295.755737	-70.827133	-27.981951	-53.471043
296.210175	-63.373543	4.286657	-43.536049
296.664581	18.553661	-30.464781	-13.741162
297.118958	16.072655	39.017666	-46.019539
297.573242	-55.920906	6.768023	48.283123
298.027557	-28.602615	-25.499090	-90.742203
298.481812	-23.637081	-60.268173	3.632186
298.935974	-80.766777	-27.981951	-88.256668
299.390137	-38.535076	91.076096	1.150554
299.844238	-53.436863	-77.660484	-98.199303
300.298340	-58.404926	-20.533821	25.961786
300.752350	-93.193634	-15.568833	16.038515
301.206360	-48.469223	-72.690643	-48.503269
301.660278	-48.469223	-45.364647	-60.923367
302.114197	-18.671833	-37.914173	-21.188433
302.568054	-13.707139	-27.981951	-65.892067
303.021881	-65.858009	-5.640252	18.519522
303.475677	-78.281677	-92.572281	1.150554
303.929413	6.147725	9.249419	-33.602737
304.383118	-36.051769	-82.630608	21.000425
304.836761	-6.260815	-45.364647	1.150554
305.290375	-36.051769	-25.499090	-48.503269
305.743958	-83.251991	-25.499090	-1.331183
306.197510	33.437248	-32.947849	35.883400
306.650970	-120.542297	66.291969	-28.636646
307.104431	3.666199	-5.640252	38.363579
307.557800	-48.469223	-62.752510	-6.294834
308.011169	-18.671833	-42.881050	-46.019539
308.464508	-16.189367	11.730711	-36.085941
308.917755	25.995920	76.206879	-55.954956
309.371063	18.553661	-27.981951	58.200878
309.824219	-1.297032	-3.158469	-28.636646
310.277374	11.110331	-77.660484	11.076322
310.730499	-70.827133	-40.397556	-41.052528
311.183563	-43.501873	-0.676656	28.442379
311.636597	-26.119728	6.768023	-53.471043
312.089569	45.837345	53.896133	-46.019539
312.542511	-28.602615	-3.158469	-16.223526
312.995422	25.995920	39.017666	-3.812888
313.448273	23.515226	43.977524	-73.345978
313.901093	-36.051769	4.286657	-70.861320
314.353882	-18.671833	-10.604401	1.150554
314.806580	-21.154404	-42.881050	-13.741162
315.259308	-55.920906	-52.815933	-11.259038
315.711975	28.476376	46.457363	30.922867
316.164581	-21.154404	-57.783943	-23.671110
316.617126	-152.880142	4.286657	38.363579
317.069672	-65.858009	43.977524	-53.471043
317.522156	1.184703	61.333969	-33.602737
317.974579	-16.189367	-15.568833	18.519522
318.427002	-41.018353	-25.499090	40.843517
318.879333	-26.119728	-18.051275	-13.741162
319.331665	-6.260815	26.616011	-55.954956
319.783936	-55.920906	-47.848213	3.632186
320.236176	-60.889179	-32.947849	43.323486
320.688354	-48.469223	19.173828	-16.223526
321.140503	-33.568565	-3.158469	-95.713585
321.592651	-36.051769	11.730711	-28.636646
322.044647	3.666199	16.692848	-80.800842
322.496704	-38.535076	24.135342	-8.776884
322.948639	-70.827133	-8.122274	-11.259038
323.400604	-142.928192	-10.604401	30.922867
323.852509	-13.707139	-10.604401	-16.223526
324.304352	-3.778872	-18.051275	-41.052528
324.756165	-58.404926	-13.086497	11.076322
325.207916	-36.051769	-10.604401	-8.776884
325.659668	-23.637081	48.936966	11.076322
326.111328	-1.297032	39.017666	-33.602737
326.562988	-31.085606	-13.086497	-31.119638
327.014557	-73.311920	26.616011	35.883400
327.466156	-70.827133	9.249419	-18.705994
327.917664	-28.602615	39.017666	-11.259038
328.369110	6.147725	1.805053	-63.407593
328.820557	-11.224882	1.805053	-26.153893
329.271942	-26.119728	39.017666	-18.705994
329.723297	-73.311920	-23.016335	28.442379
330.174561	-23.637081	-15.568833	33.403114
330.625854	33.437248	-15.568833	-3.812888
331.077026	-36.051769	-20.533821	-41.052528
331.528229	-23.637081	11.730711	-93.227837
331.979370	-13.707139	6.768023	-33.602737
332.430450	-33.568565	-15.568833	-8.776884
332.881500	-50.952923	-112.460747	8.595003
333.332489	-1.297032	26.616011	-3.812888
333.783478	-18.671833	-10.604401	-23.671110
334.234406	13.591545	-77.660484	1.150554
334.685303	-8.742728	93.553986	6.113579
335.136078	-83.251991	-57.783943	6.113579
335.586914	-33.568565	-20.533821	-58.439106
336.037659	-23.637081	11.730711	-8.776884
336.488342	-48.469223	-45.364647	-58.439106
336.939026	8.629148	-27.981951	-26.153893
337.389648	-26.119728	9.249419	11.076322
337.840240	-48.469223	-20.533821	-31.119638
338.290771	-68.342453	-20.533821	16.038515
338.741272	-33.568565	-42.881050	-28.636646
339.191681	-31.085606	61.333969	1.150554
339.642120	-53.436863	11.730711	-38.569115
340.092468	-105.623291	-13.086497	-13.741162
340.542816	-28.602615	29.096577	-16.223526
340.993103	-28.602615	9.249419	18.519522
341.443329	-36.051769	16.692848	-58.439106
341.893555	-55.920906	29.096577	-53.471043
342.343689	-8.742728	88.598236	25.961786
342.793793	48.317108	26.616011	-36.085941
343.243866	-6.260815	4.286657	30.922867
343.693878	-28.602615	16.692848	-41.052528
344.143890	-45.985493	29.096577	-8.776884
344.593842	-60.889179	-72.690643	55.721661
345.043732	-38.535076	-10.604401	-3.812888
345.493591	-38.535076	6.768023	-11.259038
345.943359	-73.311920	16.692848	-28.636646
346.393158	97.889977	-32.947849	-33.602737
346.842896	-63.373543	31.576902	-18.705994
347.292542	-41.018353	46.457363	-23.671110
347.742218	92.934593	-90.086670	-28.636646
348.191803	-11.224882	-35.431026	11.076322
348.641357	-23.637081	19.173828	-11.259038
349.090881	8.629148	29.096577	-26.153893
349.540314	-70.827133	-3.158469	-6.294834
349.989777	-110.595825	-42.881050	-8.776884
350.439148	8.629148	68.770889	-8.776884
350.888489	-48.469223	41.497578	-68.376640
351.337799	38.397568	51.416599	-41.052528
351.787048	-80.766777	-10.604401	18.519522
352.236267	-80.766777	36.537514	-46.019539
352.685425	-38.535076	21.654705	-60.923367
353.134552	-11.224882	-13.086497	-21.188433
353.583649	-36.051769	56.375423	-78.315872
354.032684	-85.737175	135.661865	-118.089699
354.481659	-23.637081	41.497578	-43.536049
354.930634	-33.568565	19.173828	-100.685265
355.379517	-45.985493	-25.499090	-13.741162
355.828430	-45.985493	41.497578	-33.602737
356.277222	-85.737175	-8.122274	3.632186
356.726013	18.553661	-75.175514	-6.294834
357.174774	-58.404926	1.805053	-36.085941
357.623444	-13.707139	6.768023	-63.407593
358.072113	23.515226	56.375423	-26.153893
358.520721	-18.671833	-75.175514	-18.705994
358.969299	3.666199	98.509460	-16.223526
359.417786	-21.154404	11.730711	-11.259038
359.866302	-16.189367	14.211764	-11.259038
360.314697	25.995920	78.685379	40.843517
360.763123	-43.501873	36.537514	21.000425
361.211456	107.799667	-0.676656	30.922867
361.659760	-6.260815	58.854752	35.883400
362.108032	25.995920	43.977524	-13.741162
362.556244	11.110331	16.692848	23.481091
363.004456	21.034428	-0.676656	-13.741162
363.452576	-3.778872	-27.981951	-46.019539
363.900696	-58.404926	-40.397556	38.363579
364.348663	-31.085606	41.497578	-16.223526
364.796722	-6.260815	-18.051275	1.150554
365.244690	-80.766777	-60.268173	11.076322
365.692596	-65.858009	-8.122274	-16.223526
366.140472	28.476376	9.249419	-48.503269
366.588287	28.476376	-25.499090	-28.636646
367.036102	-13.707139	41.497578	-13.741162
367.483826	-48.469223	11.730711	-13.741162
367.931549	-6.260815	-27.981951	55.721661
368.379181	13.591545	-10.604401	6.113579
368.826843	-21.154404	4.286657	-33.602737
369.274384	-78.281677	-72.690643	-68.376640
369.721924	-48.469223	-20.533821	45.803356
370.169403	-78.281677	-3.158469	-3.812888
370.616821	-83.251991	-32.947849	38.363579
371.064270	-55.920906	6.768023	-36.085941
371.511566	11.110331	53.896133	-43.536049
371.958923	-43.501873	16.692848	-73.345978
372.406158	-43.501873	-3.158469	-8.776884
372.853424	-41.018353	-27.981951	-23.671110
373.300568	-48.469223	9.249419	1.150554
373.747711	-68.342453	26.616011	-41.052528
374.194794	-31.085606	-0.676656	11.076322
374.641846	-58.404926	-10.604401	-41.052528
375.088898	-50.952923	-105.001808	-21.188433
375.535828	-18.671833	34.057262	23.481091
375.982758	-73.311920	66.291969	55.721661
376.429596	-11.224882	91.076096	65.638184
376.876465	-38.535076	21.654705	18.519522
377.323242	13.591545	68.770889	50.762650
377.769989	-108.109573	-8.122274	58.200878
378.216675	-31.085606	91.076096	-18.705994
378.663330	6.147725	43.977524	-108.143646
379.109985	-60.889179	-42.881050	-6.294834
379.556519	-33.568565	-25.499090	-18.705994
380.003052	23.515226	39.017666	-23.671110
380.449524	-48.469223	-50.332020	-50.987103
380.895996	-23.637081	9.249419	53.242207
381.342377	-75.796677	21.654705	1.150554
381.788727	-68.342453	29.096577	-16.223526
382.235046	3.666199	21.654705	58.200878
382.681274	-43.501873	-65.236816	85.466568
383.127533	-85.737175	-3.158469	-16.223526
383.573669	-6.260815	-3.158469	-65.892067
384.019836	-43.501873	83.641945	-50.987103
384.465912	-48.469223	58.854752	21.000425
384.911957	-75.796677	-8.122274	-21.188433
385.357971	-48.469223	26.616011	-26.153893
385.803925	-105.623291	39.017666	-3.812888
386.249847	-60.889179	53.896133	-26.153893
386.695679	-13.707139	-35.431026	-43.536049
387.141541	-13.707139	6.768023	6.113579
387.587311	-43.501873	4.286657	-41.052528
388.033051	11.110331	56.375423	-73.345978
388.478729	23.515226	-47.848213	-16.223526
388.924408	-28.602615	-3.158469	-28.636646
389.369995	-8.742728	-27.981951	-13.741162
389.815552	-55.920906	-40.397556	28.442379
390.261078	-43.501873	6.768023	43.323486
390.706543	-21.154404	6.768023	45.803356
391.152008	-65.858009	6.768023	23.481091
391.597351	-50.952923	36.537514	-28.636646
392.042725	40.877644	34.057262	45.803356
392.487976	-55.920906	-20.533821	-68.376640
392.933289	-23.637081	71.249695	50.762650
393.378479	-28.602615	56.375423	58.200878
393.823639	28.476376	9.249419	60.680130
394.268768	-11.224882	78.685379	-36.085941
394.713837	-23.637081	61.333969	35.883400
395.158905	-31.085606	16.692848	-33.602737
395.603851	21.034428	-3.158469	18.519522
396.048798	-28.602615	31.576902	-6.294834
396.493683	-41.018353	53.896133	53.242207
396.938568	13.591545	14.211764	-3.812888
397.383392	-28.602615	19.173828	-6.294834
397.828156	-85.737175	63.813091	13.557538
398.272888	-43.501873	14.211764	-26.153893
398.717560	43.357613	110.896088	43.323486
399.162201	-55.920906	-37.914173	8.595003
399.606781	-28.602615	-62.752510	55.721661
400.051361	-33.568565	53.896133	35.883400
400.495819	-21.154404	51.416599	87.944695
400.940308	-58.404926	93.553986	21.000425
401.384705	-73.311920	71.249695	45.803356
401.829102	18.553661	103.464386	-38.569115
402.273438	-33.568565	78.685379	55.721661
402.717682	-78.281677	73.728271	107.765717
403.161926	16.072655	6.768023	38.363579
403.606110	-8.742728	56.375423	60.680130
404.050293	-63.373543	93.553986	25.961786
404.494385	-11.224882	63.813091	117.673653
404.938446	-18.671833	61.333969	60.680130
405.382477	-103.137115	24.135342	38.363579
405.826447	-38.535076	100.986908	45.803356
406.270386	-70.827133	96.031769	33.403114
406.714233	21.034428	125.756744	73.074699
407.158081	-26.119728	140.613892	80.510155
407.601868	-65.858009	165.367538	147.388123
408.045624	-58.404926	152.991898	159.764755
408.489319	-3.778872	86.120140	139.960907
408.933014	-70.827133	150.516449	231.500412
409.376617	-31.085606	224.735474	231.500412
409.820190	-98.165230	266.753052	214.192581
410.263702	-65.858009	251.926559	268.572357
410.707184	28.476376	254.397934	177.087936
411.150635	11.110331	264.282440	317.967255
411.594025	8.629148	264.282440	273.513672
412.037384	-48.469223	353.171204	325.372955
412.480682	-63.373543	367.973816	399.384186
412.923981	25.995920	469.033356	421.570862
413.367126	-60.889179	540.419312	416.641083
413.810333	-45.985493	456.717590	512.701965
414.253479	16.072655	535.498840	549.610718
414.696533	-43.501873	594.522278	490.546844
415.139587	-38.535076	660.861145	586.498840
415.582581	-53.436863	665.772583	660.213562
416.025543	-45.985493	798.245178	618.451843
416.468414	-36.051769	830.098511	714.219299
416.911285	35.917530	837.447266	782.892090
417.354065	-128.003250	940.247437	907.799133
417.796875	45.837345	1147.842773	927.372253
418.239594	-78.281677	1113.691406	1069.115356
418.682281	-73.311920	1250.201416	1078.880615
419.124908	-58.404926	1410.769043	1305.553711
419.567505	-31.085606	1422.919678	1366.370483
420.010071	-13.707139	1585.552490	1451.432373
420.452545	-18.671833	1631.610962	1580.063110
420.895020	-23.637081	1788.980225	1662.470581
421.337372	21.034428	1958.117065	1771.409424
421.779785	-50.952923	2047.379883	1872.954468
422.222107	-11.224882	2273.738770	2109.413818
422.664368	-8.742728	2389.100830	2352.432861
423.106628	-95.679382	2717.556641	2321.190674
423.548798	-50.952923	2719.950195	2549.247559
423.990967	-70.827133	2904.043945	2721.711426
424.433044	-105.623291	3059.172363	2819.778564
424.875092	35.917530	3352.054688	3013.223633
425.317078	-55.920906	3636.976074	3291.967773
425.759064	-50.952923	3812.288330	3370.447021
426.200989	55.755642	4072.352539	3660.058594
426.642853	-70.827133	4336.505859	3939.411133
427.084686	-16.189367	4583.577637	4262.833496
427.526459	38.397568	4858.250488	4444.192871
427.968201	-16.189367	5071.431641	4691.027344
428.409912	-60.889179	5382.305664	5108.256348
428.851563	-8.742728	5706.336426	5304.631348
429.293121	-43.501873	6178.006348	5360.679199
429.734711	-11.224882	6365.706055	5838.346680
430.176239	-95.679382	6728.715332	5991.730957
430.617706	30.956865	6904.063965	6358.148438
431.059113	-43.501873	7290.823242	6711.942871
431.500488	23.515226	7779.520996	7129.208496
431.941833	-55.920906	8291.502930	7508.408691
432.383087	1.184703	8441.982422	7515.291992
432.824341	8.629148	9142.027344	8067.150879
433.265533	-90.708138	9619.582031	8637.209961
433.706726	-100.651054	9928.804688	8853.205078
434.147827	-16.189367	10417.267578	9331.740234
434.588867	-36.051769	10897.446289	9907.916016
435.029877	-18.671833	11295.738281	10268.279297
435.470825	48.317108	11978.218750	10843.077148
435.911804	11.110331	12187.334961	11167.711914
436.352661	-18.671833	13050.260742	11634.500977
436.793518	-48.469223	13748.607422	11810.606445
437.234283	-43.501873	14030.882813	12735.116211
437.675049	-98.165230	14862.727539	13290.813477
438.115723	-48.469223	15519.142578	13961.968750
438.556396	-70.827133	16067.135742	14486.141602
438.997040	-145.415955	16953.673828	15044.490234
439.437561	-3.778872	17546.339844	15689.613281
439.878113	-88.222603	18318.041016	16224.260742
440.318573	-23.637081	19000.125000	16782.449219
440.759033	-38.535076	19815.951172	17749.091797
441.199341	-58.404926	20917.410156	18829.011719
441.639709	-1.297032	21489.755859	19369.111328
442.079956	-45.985493	22629.908203	20174.300781
442.520264	-3.778872	23722.367188	20783.154297
442.960510	3.666199	24561.285156	21840.363281
443.400604	-26.119728	25339.865234	22435.800781
443.840759	23.515226	26321.585938	23338.214844
444.280762	-65.858009	27120.697266	24494.410156
444.720825	-26.119728	28261.013672	25073.701172
445.160767	3.666199	29242.246094	26092.572266
445.600739	-13.707139	29778.650391	26662.710938
446.040558	8.629148	30782.419922	27297.828125
446.480438	-31.085606	31289.712891	27875.705078
446.920258	-93.193634	32154.759766	28983.501953
447.359955	-58.404926	32819.144531	28983.501953
447.799713	-28.602615	34172.921875	30610.476563
448.239319	-1.297032	33394.222656	30332.279297
448.678955	3.666199	34438.976563	30799.632813
449.118500	-95.679382	35336.394531	31551.599609
449.558014	23.515226	34751.492188	31698.380859
449.997498	-65.858009	35338.609375	32025.240234
450.436951	-55.920906	34864.507813	31709.501953
450.876343	-18.671833	35068.347656	32111.935547
451.315674	-31.085606	35307.597656	32165.285156
451.754974	-13.707139	34474.441406	31733.962891
452.194183	11.110331	34795.812500	32111.935547
452.633392	21.034428	33436.394531	31335.839844
453.072510	-31.085606	32883.554688	30588.222656
453.511688	-16.189367	32341.457031	30205.414063
453.950684	92.934593	31474.339844	29439.740234
454.389740	-75.796677	30655.574219	28805.482422
454.828735	28.476376	29863.230469	28258.201172
455.267639	-73.311920	28630.292969	27109.003906
455.706543	-88.222603	27569.521484	25930.738281
456.145325	60.714241	26878.632813	25527.492188
456.584137	-23.637081	25802.779297	24227.140625
457.022858	-31.085606	24521.509766	23529.955078
457.461578	8.629148	23669.439453	22486.375000
457.900208	-58.404926	22759.710938	21783.279297
458.338867	-3.778872	21608.253906	20507.126953
458.777405	-23.637081	20641.320313	19994.818359
459.215912	-28.602615	20019.468750	18741.560547
459.654388	-3.778872	19323.761719	18588.531250
460.092773	50.796768	18556.316406	17777.511719
460.531189	-45.985493	17902.699219	17274.619141
460.969513	-26.119728	17668.775391	16668.662109
461.407806	-38.535076	16754.580078	15970.159180
461.846008	-60.889179	16588.263672	15707.152344
462.284241	43.357613	15720.883789	15358.414063
462.722351	-45.985493	15334.853516	14870.938477
463.160461	-58.404926	15269.014648	14472.939453
463.598541	8.629148	14933.040039	14389.312500
464.036530	25.995920	14827.565430	14118.449219
464.474518	-1.297032	14286.424805	13770.090820
464.912384	1.184703	14304.039063	13516.222656
465.350281	-23.637081	13836.854492	13248.800781
465.788086	-53.436863	13311.295898	12704.076172
466.225891	-90.708138	13220.633789	12801.615234
466.663605	-1.297032	13211.786133	12393.405273
467.101318	-1.297032	12680.270508	12353.425781
467.539001	-75.796677	12556.046875	11915.293945
467.976563	-60.889179	12607.077148	11797.238281
468.414124	45.837345	12200.675781	11636.731445
468.851593	-36.051769	11944.826172	11505.092773
469.289063	21.034428	11842.383789	11382.285156
469.726440	-50.952923	11701.986328	11362.179688
470.163849	48.317108	11159.355469	10645.732422
470.601135	-65.858009	11331.491211	10798.248047
471.038422	-8.742728	10807.805664	10394.200195
471.475677	-113.082314	10513.872070	10423.416992
471.912811	-75.796677	10495.904297	10119.735352
472.350006	-58.404926	10556.538086	10092.710938
472.787048	-3.778872	10194.619141	9903.406250
473.224121	-70.827133	9890.468750	9621.247070
473.661072	-88.222603	9872.425781	9401.910156
474.098053	48.317108	9836.332031	9161.833008
474.534943	-23.637081	9520.129883	9109.687500
474.971802	-11.224882	9234.949219	9037.103516
475.408630	-36.051769	9284.784180	9116.489258
475.845367	-45.985493	9350.449219	8800.942383
476.282104	-41.018353	8990.046875	8587.140625
476.718750	-31.085606	9026.355469	8573.481445
477.155426	25.995920	8758.353516	8571.206055
477.591949	-38.535076	8844.715820	8404.916016
478.028503	-41.018353	8749.258789	8274.931641
478.464966	53.276192	8846.989258	8254.395508
478.901428	-8.742728	8619.604492	8176.789551
479.337860	-93.193634	8819.721680	8300.026367
479.774170	18.553661	8482.992188	8147.104492
480.210510	53.276192	8512.603516	8026.012695
480.646698	11.110331	8521.712891	8325.116211
481.082947	30.956865	8671.936523	8051.153809
481.519073	3.666199	8441.982422	8067.150879
481.955200	-21.154404	8587.741211	8021.440430
482.391266	11.110331	8651.460938	8270.369141
482.827301	-70.827133	8585.464844	8087.714844
483.263306	-83.251991	8681.035156	8190.488281
483.699188	28.476376	8735.617188	8315.993164
484.135101	-70.827133	8594.569336	8167.656250
484.570923	-11.224882	8758.353516	8256.677734
485.006744	-8.742728	8926.483398	8327.396484
485.442413	-3.778872	9162.430664	8341.080078
485.878174	-85.737175	8906.046875	8521.112305
486.313782	-26.119728	9164.698242	8493.781250
486.749390	33.437248	9155.629883	8402.636719
487.184998	-3.778872	9132.959961	8634.934570
487.620453	-8.742728	9357.240234	8689.535156
488.055939	-31.085606	9495.256836	8737.291992
488.491333	-43.501873	9531.434570	8732.744141
488.926727	-43.501873	9858.891602	8769.120117
489.362030	-103.137115	9635.398438	8928.156250
489.797302	-58.404926	9931.058594	9173.166992
490.232513	-3.778872	10043.749023	9288.716797
490.667755	16.072655	9937.823242	9508.228516
491.102905	-63.373543	10376.810547	9435.849609
491.537964	-16.189367	10450.973633	9691.273438
491.973022	-90.708138	10798.837891	9919.190430
492.407990	45.837345	10789.872070	9968.789063
492.842957	11.110331	11230.915039	10187.272461
493.277832	-73.311920	11545.852539	10353.736328
493.712738	-73.311920	11717.590820	10555.946289
494.147491	-13.707139	11955.958008	10755.648438
494.582275	13.591545	12027.182617	10912.537109
495.017029	16.072655	12666.963867	11272.798828
495.451660	-13.707139	12915.192383	11641.191406
495.886292	-90.708138	13415.178711	11955.371094
496.320831	-18.671833	13689.023438	12297.883789
496.755402	-13.707139	14235.776367	12362.310547
497.189850	-21.154404	14651.694336	12717.379883
497.624298	-100.651054	14812.180664	13323.976563
498.058655	-75.796677	15332.659180	13692.856445
498.493042	6.147725	15657.302734	14001.649414
498.927368	-65.858009	16113.136719	14303.458984
499.361572	-65.858009	16557.621094	14809.403320
499.795807	-16.189367	16920.861328	15340.858398
500.229919	-6.260815	17487.304688	15588.747070
500.664063	-33.568565	17876.464844	15957.012695
501.098083	-43.501873	18477.619141	16859.025391
501.532104	-45.985493	19210.042969	17174.017578
501.966064	-11.224882	19557.794922	17458.302734
502.399994	3.666199	20074.187500	17998.306641
502.833893	-13.707139	20941.519531	18474.855469
503.267700	-75.796677	21219.953125	18807.148438
503.701477	13.591545	22258.326172	19345.054688
504.135193	-85.737175	22572.720703	20014.513672
504.568909	-13.707139	23039.244141	20476.464844
505.002502	-43.501873	23784.125000	21127.277344
505.436127	1.184703	24430.921875	21638.400391
505.869629	6.147725	24804.443359	21785.474609
506.303162	-11.224882	25554.654297	22490.771484
506.736603	-75.796677	25931.324219	22831.746094
507.169983	-68.342453	26982.998047	23543.181641
507.603363	-75.796677	27429.511719	24107.916016
508.036621	18.553661	28025.269531	24839.240234
508.469940	-1.297032	28481.234375	25228.603516
508.903107	-31.085606	29277.855469	25565.144531
509.336304	25.995920	29714.099609	26003.888672
509.769379	-21.154404	30390.734375	26793.677734
510.202484	23.515226	30947.083984	26664.929688
510.635529	1.184703	31369.794922	27344.488281
511.068481	-105.623291	32221.443359	28267.099609
511.501434	-31.085606	32619.218750	28467.296875
511.934265	-23.637081	33165.574219	29321.779297
512.367126	-33.568565	34042.078125	29795.865234
512.799927	8.629148	33729.308594	30027.351563
513.232605	-65.858009	34578.625000	30461.367188
513.665344	-48.469223	34946.492188	30990.998047
514.097961	-18.671833	35980.875000	31829.582031
514.530579	11.110331	36450.363281	32600.855469
514.963135	-85.737175	37210.234375	32916.289063
515.395691	-85.737175	37434.128906	33176.085938
515.828064	13.591545	38784.757813	33746.476563
516.260498	-11.224882	38675.656250	34467.210938
516.692871	-53.436863	39186.066406	34870.574219
517.125183	-105.623291	39695.785156	34850.628906
517.557373	-70.827133	39783.156250	35517.433594
517.989624	-70.827133	40362.742188	36046.726563
518.421753	-83.251991	41129.343750	36418.773438
518.853943	-95.679382	41591.796875	36779.800781
519.286072	1.184703	42350.265625	37103.273438
519.718018	-60.889179	42789.042969	37832.812500
520.150024	-70.827133	43182.152344	37906.058594
520.581909	3.666199	43055.457031	38485.945313
521.013855	-115.568916	43644.886719	38701.785156
521.445679	-80.766777	44483.734375	39274.781250
521.877502	-26.119728	44990.953125	39109.609375
522.309204	-48.469223	44367.652344	39395.414063
522.740906	-26.119728	45210.187500	39234.589844
523.172546	-13.707139	45555.433594	39581.023438
523.604187	-48.469223	45798.515625	40056.273438
524.035767	-16.189367	46162.847656	40125.921875
524.467224	-80.766777	46521.265625	40267.597656
524.898682	-50.952923	46539.300781	40490.609375
525.330078	-18.671833	46580.562500	40872.488281
525.761475	8.629148	47012.175781	41376.707031
526.192749	-6.260815	47001.699219	41751.347656
526.624023	11.110331	47104.023438	41495.281250
527.055237	-65.858009	47463.824219	42160.335938
527.486389	11.110331	47925.828125	42134.984375
527.917542	48.317108	48045.320313	42709.234375
528.348572	-70.827133	48288.730469	42572.089844
528.779663	-21.154404	48894.976563	42758.136719
529.210571	-60.889179	48982.390625	43266.183594
529.641541	-45.985493	48763.023438	42891.093750
530.072388	21.034428	48979.570313	43343.910156
530.503235	-26.119728	48878.089844	43275.597656
530.934082	-8.742728	48931.601563	43254.417969
531.364746	-6.260815	49326.613281	43485.562500
531.795532	-8.742728	49609.035156	43285.011719
532.226135	-55.920906	50321.117188	43362.773438
532.656738	-38.535076	50012.460938	43789.242188
533.087280	33.437248	50009.511719	43355.695313
533.517822	-13.707139	50092.203125	44135.886719
533.948242	-50.952923	49766.085938	43779.722656
534.378662	-16.189367	50443.917969	44186.328125
534.809082	-18.671833	50321.117188	43860.730469
535.239319	-41.018353	50362.972656	44282.589844
535.669617	-33.568565	50840.710938	44131.085938
536.099792	8.629148	50947.882813	43925.167969
536.529968	13.591545	50579.457031	44333.226563
536.960083	-90.708138	50009.511719	44386.339844
537.390137	-75.796677	50413.906250	44275.367188
537.820190	-41.018353	50255.480469	44726.074219
538.250183	-23.637081	51070.984375	45041.910156
538.680115	-23.637081	51033.988281	45204.597656
539.109985	3.666199	50981.671875	45350.679688
539.539795	-33.568565	51397.304688	44674.917969
539.969543	-18.671833	51015.507813	44650.578125
540.399292	73.108673	51006.277344	44894.664063
540.828979	18.553661	51607.996094	45187.308594
541.258606	-6.260815	50960.164063	44801.722656
541.688171	25.995920	51747.429688	44884.871094
542.117737	-53.436863	50895.765625	44818.824219
542.547302	-73.311920	50972.457031	44087.902344
542.976685	-45.985493	51595.363281	44618.968750
543.406128	-33.568565	51291.132813	44572.816406
543.835388	-75.796677	50993.968750	45056.667969
544.264771	-38.535076	51157.554688	45135.484375
544.693970	11.110331	50917.214844	44801.722656
545.123230	-28.602615	51529.156250	45412.773438
545.552307	16.072655	51958.195313	45901.152344
545.981506	-48.469223	51475.695313	45504.882813
546.410583	-48.469223	51197.851563	45258.996094
546.839539	-18.671833	51906.921875	45452.574219
547.268555	-36.051769	51316.070313	45219.425781
547.697449	-23.637081	51431.761719	45365.574219
548.126282	-33.568565	51347.285156	45519.843750
548.555054	-78.281677	51012.433594	45649.785156
548.983887	21.034428	51080.246094	45522.332031
549.412598	-13.707139	51652.265625	45569.757813
549.841309	3.666199	51741.074219	45221.894531
550.269958	35.917530	51696.628906	45100.980469
550.698486	-100.651054	52307.378906	45115.765625
551.127075	1.184703	51409.835938	45125.625000
551.555481	8.629148	51779.234375	45343.242188
551.983948	-63.373543	51744.250000	45174.960938
552.412292	-55.920906	52586.046875	45375.503906
552.840698	-6.260815	51750.605469	45216.949219
553.268860	30.956865	51922.929688	45534.808594
553.697205	-98.165230	52003.160156	45619.750000
554.125366	-55.920906	51942.164063	45682.351563
554.553467	-53.436863	52048.210938	45539.796875
554.981628	-55.920906	51671.273438	45455.058594
555.409607	-1.297032	52157.996094	45674.832031
555.837646	-70.827133	52164.472656	45941.558594
556.265564	-3.778872	52718.386719	45614.750000
556.693481	-63.373543	53242.074219	45875.925781
557.121338	-43.501873	52998.859375	46241.171875
557.549133	-11.224882	52898.285156	46253.933594
557.976929	-11.224882	53164.089844	46792.277344
558.404602	-11.224882	53684.507813	46338.285156
558.832275	-31.085606	52698.488281	46052.937500
559.259888	-50.952923	53123.511719	46294.804688
559.687439	1.184703	53792.136719	46595.371094
560.114929	30.956865	53371.503906	46505.136719
560.542419	13.591545	53296.476563	47003.628906
560.969788	-60.889179	53642.980469	46523.164063
561.397156	-31.085606	53481.070313	46392.089844
561.824524	-48.469223	53539.503906	46497.414063
562.251770	-95.679382	53279.464844	46487.121094
562.679016	-85.737175	53532.625000	45979.484375
563.106140	-83.251991	53854.867188	46149.453125
563.533264	-3.778872	53197.960938	46363.898438
563.960327	-6.260815	53316.917969	46058.011719
564.387329	21.034428	52848.171875	45792.820313
564.814331	-18.671833	52691.859375	45745.074219
565.241272	13.591545	52148.285156	45390.406250
565.668213	-33.568565	52385.714844	45382.953125
566.094971	-1.297032	52388.984375	45557.269531
566.521790	68.151237	51649.105469	44572.816406
566.948425	-33.568565	52061.097656	45286.230469
567.375183	-60.889179	52464.324219	45572.253906
567.801819	-63.373543	52151.523438	45150.281250
568.228394	-53.436863	51384.792969	44801.722656
568.654846	-55.920906	51453.718750	44648.148438
569.081421	1.184703	51213.375000	44738.261719
569.507874	40.877644	50646.007813	44429.851563
569.934265	-130.490494	50267.402344	44025.601563
570.360596	16.072655	50467.957031	44316.339844
570.786865	-11.224882	49432.855469	43918.003906
571.213074	3.666199	49935.929688	43741.656250
571.639282	45.837345	49742.750000	43918.003906
572.065430	-36.051769	49818.664063	43078.285156
572.491516	-26.119728	48990.867188	42958.871094
572.917603	-26.119728	49061.617188	42975.238281
573.343567	-31.085606	49129.730469	42867.738281
573.769531	-48.469223	48296.972656	42338.093750
574.195435	-11.224882	48743.429688	42303.425781
574.621277	-70.827133	48015.394531	42109.640625
575.047119	-38.535076	48426.492188	42042.882813
575.472839	3.666199	48170.839844	42530.316406
575.898560	-11.224882	47850.066406	42243.375000
576.324158	-43.501873	48390.601563	41911.871094
576.749817	6.147725	47809.570313	41276.519531
577.175293	-31.085606	47554.519531	41033.410156
577.600830	-36.051769	47362.812500	40990.316406
578.026306	16.072655	46881.488281	40829.480469
578.451721	-13.707139	46894.527344	40843.058594
578.877136	8.629148	46547.031250	40662.152344
579.302429	-43.501873	45937.171875	40612.460938
579.727661	13.591545	46531.570313	40931.378906
580.152832	-21.154404	46336.402344	40011.363281
580.578064	-16.189367	46400.460938	40404.953125
581.003113	-8.742728	46035.863281	40027.078125
581.428223	-88.222603	45620.410156	39668.324219
581.853271	-8.742728	45710.593750	39518.382813
582.278198	-33.568565	45099.167969	39089.531250
582.703125	-70.827133	44875.722656	38960.195313
583.127930	-50.952923	45077.003906	38779.722656
583.552795	-95.679382	45032.722656	38710.691406
583.977539	16.072655	45252.222656	38448.132813
584.402283	-70.827133	45091.777344	39129.687500
584.826965	-115.568916	44656.089844	39160.925781
585.251587	-11.224882	45059.777344	39471.417969
585.676208	-142.928192	44765.742188	39420.003906
586.100647	-60.889179	44561.316406	39004.785156
586.525208	-93.193634	44755.976563	38886.648438
586.949524	-6.260815	44102.917969	38525.984375
587.373962	-48.469223	44052.574219	38181.414063
587.798218	38.397568	44105.320313	38586.050781
588.222534	18.553661	43995.117188	38128.101563
588.646729	-93.193634	44076.542969	38097.003906
589.070984	-13.707139	43789.875000	37539.980469
589.495117	-48.469223	43325.675781	37710.777344
589.919128	-73.311920	43578.492188	37617.605469
590.343201	-11.224882	43137.542969	37613.167969
590.767151	28.476376	42961.820313	37189.707031
591.191101	16.072655	42758.746094	37043.445313
591.614990	21.034428	42805.359375	36817.460938
592.038818	-8.742728	41781.730469	36642.468750
592.462524	-53.436863	42195.531250	36808.601563
592.886292	1.184703	42167.855469	36835.183594
593.310059	38.397568	41685.554688	36553.875000
593.733582	-6.260815	41809.238281	35927.144531
594.157227	-55.920906	41147.515625	35811.984375
594.580750	8.629148	40999.980469	35606.027344
595.004272	25.995920	40491.203125	35541.796875
595.427673	-33.568565	40660.484375	34941.476563
595.851074	-36.051769	40907.058594	35262.710938
596.274353	-18.671833	40506.992188	35176.316406
596.697632	-26.119728	40762.199219	35107.640625
597.120911	16.072655	40171.468750	34961.417969
597.544067	-28.602615	40157.980469	34744.261719
597.967224	-16.189367	40020.933594	34489.378906
598.390320	-33.568565	39297.699219	34201.164063
598.813354	-8.742728	39666.675781	34261.031250
599.236328	16.072655	39612.945313	33830.777344
599.659241	-55.920906	39378.125000	33850.746094
600.082153	-58.404926	38840.445313	33682.128906
600.505005	-43.501873	38531.015625	33289.312500
600.927795	-58.404926	38233.101563	32845.214844
601.350525	-75.796677	38424.257813	32958.480469
601.773254	38.397568	37864.468750	32231.968750
602.195862	-8.742728	37618.195313	32669.726563
602.618408	-43.501873	37367.617188	32136.388672
603.040955	-60.889179	37487.343750	32147.503906
603.463440	-83.251991	36784.816406	32283.089844
603.885925	8.629148	36831.335938	32443.099609
604.308350	28.476376	37094.996094	31580.513672
604.730652	-45.985493	36488.011719	31845.148438
605.152893	-110.595825	36716.144531	31413.693359
605.575195	-8.742728	36087.171875	31647.234375
605.997375	18.553661	36392.785156	31117.820313
606.419495	-26.119728	36115.960938	31313.595703
606.841553	58.234997	35646.472656	30944.269531
607.263672	-23.637081	35648.687500	30917.568359
607.685608	-75.796677	35723.984375	30775.154297
608.107605	-38.535076	35340.824219	30425.755859
608.529480	-36.051769	35336.394531	30365.666016
608.951294	-13.707139	35048.410156	30082.996094
609.373108	-68.342453	35088.289063	30225.445313
609.794800	-13.707139	34399.070313	29506.513672
610.216553	-31.085606	34268.265625	29677.898438
610.638123	-103.137115	33991.070313	29562.158203
611.059753	-36.051769	34093.085938	29281.720703
611.481262	-21.154404	34166.265625	29613.349609
611.902832	30.956865	33871.292969	29076.970703
612.324219	-80.766777	34022.117188	29352.939453
612.745605	-78.281677	33582.867188	29083.646484
613.166931	33.437248	33678.281250	28416.132813
613.588196	85.500671	33318.753906	28298.238281
614.009460	-21.154404	33096.746094	28153.667969
614.430664	-70.827133	33127.828125	27900.162109
614.851807	33.437248	32683.646484	28031.355469
615.272827	-21.154404	32881.335938	27717.859375
615.693909	8.629148	32032.496094	27889.044922
616.114929	8.629148	31959.126953	27675.623047
616.535889	-43.501873	31240.765625	27300.048828
616.956787	-18.671833	31325.304688	26829.201172
617.377563	-43.501873	31116.183594	26902.468750
617.798340	-16.189367	31276.361328	26715.980469
618.219055	-16.189367	30804.671875	26540.646484
618.639832	13.591545	30702.306641	26196.792969
619.060364	-16.189367	29972.292969	25509.775391
619.481018	-45.985493	29878.812500	25578.433594
619.901611	-48.469223	29306.789063	25306.074219
620.322083	-11.224882	29329.044922	25394.628906
620.742493	-45.985493	28630.292969	24910.007813
621.162842	-125.516251	28214.306641	24235.974609
621.583191	-33.568565	28481.234375	24145.447266
622.003418	-21.154404	27627.308594	23807.806641
622.423706	-38.535076	27413.955078	23867.371094
622.843872	-21.154404	27114.033203	23371.267578
623.264038	-31.085606	26931.921875	23010.039063
623.684143	-31.085606	26716.566406	22723.923828
624.104126	-55.920906	26215.121094	22594.134766
624.524170	-1.297032	25674.271484	22376.443359
624.944031	-50.952923	25869.265625	22059.990234
625.364014	-11.224882	25541.367188	21778.886719
625.783752	-41.018353	24884.050781	21217.179688
626.203552	-18.671833	24205.644531	20982.587891
626.623230	8.629148	24022.417969	20577.216797
627.042969	-78.281677	23865.746094	20570.644531
627.462585	1.184703	23654.003906	19885.396484
627.882141	-55.920906	23415.921875	19948.857422
628.301697	-103.137115	22825.724609	19937.916016
628.721130	-13.707139	22517.742188	19226.958984
629.140625	-65.858009	22306.681641	19253.201172
629.559998	-1.297032	21972.707031	19100.128906
629.979309	6.147725	21988.082031	18715.326172
630.398560	-3.778872	21722.388672	18726.257813
630.817810	-83.251991	22014.439453	18324.021484
631.237000	3.666199	21329.611328	18085.748047
631.656067	-28.602615	20728.955078	17878.074219
632.075195	-36.051769	20726.763672	17650.708984
632.494202	-53.436863	20656.656250	17495.474609
632.913208	-13.707139	20229.609375	17112.777344
633.332092	-55.920906	19824.705078	16981.535156
633.750977	-58.404926	19815.951172	16791.199219
634.169739	-95.679382	19551.232422	16837.146484
634.588562	-18.671833	19196.921875	16160.748047
635.007263	-28.602615	19151.000000	16500.132813
635.425964	-13.707139	18917.041016	15854.016602
635.844543	45.837345	18497.292969	16147.606445
636.263123	-63.373543	18366.130859	15880.317383
636.681641	-36.051769	18287.437500	15595.326172
637.100037	-63.373543	18049.164063	15630.411133
637.518494	35.917530	17793.390625	15623.833008
637.936829	-36.051769	17679.708984	15171.849609
638.355164	-55.920906	17325.494141	14859.951172
638.773438	-58.404926	17332.054688	14870.938477
639.191650	8.629148	17233.644531	14637.919922
639.609863	-1.297032	17036.798828	14446.534180
640.027893	-73.311920	16610.148438	14345.288086
640.445984	-90.708138	16588.263672	14411.322266
640.863953	-41.018353	16708.626953	13988.422852
641.281921	-88.222603	16551.054688	14133.870117
641.699829	1.184703	16119.709961	13677.405273
642.117676	-1.297032	16132.851563	13778.916016
642.535461	43.357613	15804.184570	13613.386719
642.953247	-3.778872	15709.923828	13372.606445
643.370972	11.110331	15598.096680	13377.026367
643.788635	30.956865	15389.710938	13211.203125
644.206177	-58.404926	15029.695313	13080.666016
644.623718	33.437248	14915.462891	12859.226563
645.041260	-11.224882	14963.795898	12593.181641
645.458618	-13.707139	14550.523438	12460.020508
645.876099	21.034428	14550.523438	12297.883789
646.293396	-60.889179	14204.942383	12306.771484
646.710693	-1.297032	14108.013672	12204.535156
647.127991	-95.679382	13823.619141	12059.972656
647.545166	-16.189367	13872.144531	11924.201172
647.962341	-6.260815	13505.759766	11665.722656
648.379333	48.317108	13468.207031	11543.033203
648.796448	-48.469223	13501.342773	11317.496094
649.213379	-1.297032	13309.083984	11301.853516
649.630310	-11.224882	12939.556641	11310.791016
650.047180	-11.224882	12737.917969	11053.605469
650.463989	6.147725	12658.092773	10834.112305
650.880859	-50.952923	12138.415039	10822.906250
651.297546	-50.952923	12285.137695	10596.356445
651.714233	-78.281677	11991.574219	10710.793945
652.130859	18.553661	11960.410156	10475.094727
652.547485	50.796768	11621.706055	10463.862305
652.963928	13.591545	11837.929688	9844.762695
653.380432	-45.985493	11895.839844	10130.993164
653.796814	-55.920906	11443.171875	9707.081055
654.213196	-31.085606	11461.034180	9847.017578
654.629578	-50.952923	10991.514648	9747.721680
655.045837	-48.469223	11143.697266	9634.803711
655.462036	-6.260815	10843.667969	9234.351563
655.878174	-33.568565	10827.978516	9284.187500
656.294312	-41.018353	10671.004883	9157.299805
656.710327	-88.222603	10635.103516	8909.990234
657.126404	-78.281677	10311.606445	8828.212891
657.542358	8.629148	10385.801758	8714.552734
657.958252	-60.889179	10388.049805	8584.864258
658.374084	-41.018353	10003.190430	8486.947266
658.789917	-45.985493	10091.052734	8320.553711
659.205688	-41.018353	10041.495117	8220.163086
659.621338	-95.679382	9748.317383	8252.114258
660.037048	-108.109573	9612.804688	8256.677734
660.452637	1.184703	9379.875000	7923.111328
660.868164	-48.469223	8928.753906	8003.152832
661.283691	-11.224882	8915.130859	7762.884277
661.699158	-63.373543	8887.876953	7765.174805
662.114502	-45.985493	9132.959961	7552.002930
662.529846	-13.707139	8583.188477	7535.942871
662.945129	-43.501873	8676.486328	7432.657715
663.360413	-60.889179	8637.809570	7092.378418
663.775635	-31.085606	8717.425781	7258.031250
664.190674	-70.827133	8469.323242	7205.137207
664.605835	25.995920	8334.840820	7122.304199
665.020813	23.515226	8284.659180	7023.291992
665.435791	-45.985493	7788.680176	6751.191895
665.850769	-36.051769	7719.964844	6797.352539
666.265625	-100.651054	7800.129395	6638.029297
666.680420	38.397568	7747.455566	6538.638672
667.095215	-41.018353	7662.675293	6483.131348
667.509949	-23.637081	7701.634766	6436.855469
667.924622	-58.404926	7430.966797	6399.823730
668.339233	-45.985493	7313.808105	6358.148438
668.753784	-41.018353	7185.041016	6001.020996
669.168335	-26.119728	7102.194824	6200.583008
669.582825	-16.189367	7145.925781	6107.803711
669.997192	-36.051769	7127.514160	5905.766602
670.411560	-41.018353	6744.876465	5840.672363
670.825867	-1.297032	6620.153809	5703.393555
671.240173	-3.778872	6772.575195	5647.507324
671.654358	-1.297032	6652.500977	5540.318848
672.068481	-6.260815	6384.228516	5384.024414
672.482605	-13.707139	6525.374512	5393.361328
672.896667	-21.154404	6354.127930	5325.652344
673.310669	3.666199	6400.434082	5180.766602
673.724609	-18.671833	6194.238770	5267.252441
674.138489	1.184703	5938.913574	5143.347168
674.552307	-11.224882	5901.731445	5040.383301
674.966064	-48.469223	6027.177734	4925.611816
675.379822	-73.311920	5955.177734	4937.328125
675.793579	-78.281677	5636.475586	4932.641602
676.207153	-60.889179	5662.095703	4848.251953
676.620789	-128.003250	5445.315918	4702.768555
677.034241	3.666199	5519.950684	4648.751465
677.447754	-63.373543	5452.314941	4491.250488
677.861206	-26.119728	5319.262207	4578.256348
678.274597	-13.707139	5354.290527	4423.010254
678.687866	38.397568	5008.221191	4345.306152
679.101135	-23.637081	5106.534180	4227.468750
679.514404	-48.469223	5078.453125	4284.046875
679.927551	-23.637081	4980.116699	4291.116699
680.340698	30.956865	4804.307129	4121.307129
680.753723	-48.469223	4710.432129	4031.578613
681.166748	-8.742728	4618.828613	4015.041504
681.579712	-3.778872	4665.813965	3832.965332
681.992615	-33.568565	4564.771484	4088.257813
682.405457	-8.742728	4569.473633	3851.896729
682.818298	-6.260815	4508.336914	3742.994873
683.231018	43.357613	4322.370117	3697.980469
683.643738	1.184703	4364.770020	3603.150391
684.056335	-113.082314	4152.608887	3586.546143
684.468994	40.877644	4213.941895	3558.075195
684.881531	8.629148	4157.328125	3660.058594
685.293945	16.072655	4150.249512	3484.489990
685.706482	-13.707139	4060.545166	3565.193848
686.118774	-11.224882	3999.125488	3453.615967
686.531128	-33.568565	4072.352539	3213.426758
686.943481	-41.018353	3892.739014	3227.711670
687.355713	-105.623291	3835.956543	3277.692139
687.767883	18.553661	3802.819092	3060.927979
688.179932	38.397568	3655.943115	3244.374512
688.592041	-90.708138	3575.310059	3068.081543
689.004089	3.666199	3700.975586	3118.142578
689.416016	-80.766777	3584.799805	2927.295898
689.827881	-18.671833	3466.118164	3017.994629
690.239868	-80.766777	3461.368408	2886.692627
690.651611	-28.602615	3316.383545	2963.108643
691.063354	6.147725	3382.959229	2831.730713
691.475098	-95.679382	3321.139893	2764.778076
691.886719	-16.189367	3328.275146	2812.606445
692.298340	-28.602615	3178.334717	2568.426025
692.709900	-48.469223	3156.895996	2652.285645
693.121460	-50.952923	2999.537354	2585.204102
693.532837	-31.085606	2939.864990	2630.729004
693.944214	-33.568565	3056.787842	2498.884766
694.355652	6.147725	3021.010254	2453.294189
694.766846	8.629148	2966.125244	2328.401611
695.178101	-53.436863	2789.325928	2419.686279
695.589294	16.072655	2801.282227	2398.074463
696.000366	18.553661	2865.820068	2414.884033
696.411438	-33.568565	2664.891113	2330.804688
696.822510	-26.119728	2645.732178	2297.150879
697.233459	-43.501873	2648.127686	2270.699463
697.644409	21.034428	2612.195313	2263.484131
698.055298	-36.051769	2595.422119	2203.332764
698.466064	-36.051769	2571.455322	2191.297607
698.876831	-33.568565	2468.326660	2116.642090
699.287537	11.110331	2516.307861	2152.773682
699.698181	-41.018353	2420.319336	2114.232666
700.108826	-55.920906	2521.104492	2037.098267
700.519348	-3.778872	2497.118408	2061.210449
700.929810	-48.469223	2268.928711	2046.744141
701.340271	3.666199	2244.874756	1875.370728
701.750732	-6.260815	2307.401611	1901.944336
702.161011	-63.373543	2208.781006	1974.375366
702.571350	-11.224882	2126.913818	1887.450684
702.981567	-53.436863	2199.153809	1764.151367
703.391724	-41.018353	2122.095703	1856.038940
703.801880	-68.342453	2194.339600	1802.853394
704.211914	13.591545	2136.549316	1730.271973
704.621948	-60.889179	1950.875366	1710.906006
705.031921	-48.469223	2006.379028	1698.799927
705.441895	-75.796677	2001.553955	1805.271729
705.851746	-21.154404	1943.632935	1693.956909
706.261536	-58.404926	2049.791016	1730.271973
706.671265	-73.311920	1895.334961	1655.202637
707.081055	38.397568	1830.088013	1696.378540
707.490662	-38.535076	1938.804565	1589.762451
707.900330	-75.796677	1834.922974	1512.133545
708.309814	-75.796677	1822.835327	1543.679565
708.719299	-11.224882	1769.628296	1577.638062
709.128784	-18.671833	1796.235962	1538.827148
709.538147	-63.373543	1866.342773	1449.003296
709.947510	-41.018353	1675.221069	1397.975952
710.356750	-28.602615	1713.965332	1436.856812
710.766052	-41.018353	1672.798828	1434.427490
711.175171	1.184703	1634.034424	1337.184326
711.584290	-21.154404	1607.373047	1427.138428
711.993347	-6.260815	1481.215088	1371.233521
712.402405	-31.085606	1510.346436	1371.233521
712.811401	70.629936	1510.346436	1461.147705
713.220276	-48.469223	1432.638550	1322.587280
713.629150	-55.920906	1401.047485	1234.944824
714.037964	-1.297032	1534.614380	1317.721069
714.446777	28.476376	1483.643188	1169.145508
714.855408	-78.281677	1442.356567	1178.897461
715.264099	-41.018353	1325.662109	1142.321777
715.672668	-6.260815	1447.214722	1193.522583
716.081177	-3.778872	1374.306396	1164.269409
716.489746	-60.889179	1415.629517	1178.897461
716.898132	-6.260815	1313.495972	1120.367432
717.306519	-68.342453	1208.787476	1061.790771
717.714844	-38.535076	1371.874878	1061.790771
718.123108	-43.501873	1245.330444	1103.287476
718.531372	-60.889179	1255.072266	1078.880615
718.939514	-93.193634	1269.682495	1071.556763
719.347595	-58.404926	1294.026367	1000.722656
719.755676	-33.568565	1157.597412	1139.882690
720.163696	-18.671833	1189.290771	1025.156128
720.571716	-8.742728	1147.842773	1049.581421
720.979614	-58.404926	1096.609863	910.246155
721.387451	-36.051769	1042.898682	898.010742
721.795227	-33.568565	1118.571289	1008.053650
722.202942	16.072655	1094.169312	827.002747
722.610718	-85.737175	918.231628	812.302368
723.018311	-16.189367	1055.109375	800.049500
723.425903	-70.827133	1062.434570	822.102844
723.833374	-26.119728	1008.697998	792.697021
724.240906	-16.189367	1040.456543	868.636719
724.648376	-23.637081	962.256653	868.636719
725.055725	-48.469223	937.801758	738.753357
725.463013	-28.602615	935.355774	807.401489
725.870300	40.877644	1057.551270	763.278564
726.277466	-11.224882	896.208679	773.085999
726.684631	21.034428	844.795044	792.697021
727.091797	-53.436863	888.866333	777.989319
727.498779	-16.189367	859.488464	785.343445
727.905823	-48.469223	874.178833	697.040283
728.312805	-16.189367	805.597351	716.673096
728.719666	33.437248	854.591187	724.034058
729.126526	13.591545	864.385681	719.126892
729.533264	-11.224882	810.498108	684.766968
729.940063	-23.637081	736.947388	719.126892
730.346680	16.072655	852.142273	758.374146
730.753357	-18.671833	830.098511	628.280640
731.159851	-1.297032	719.774109	566.827759
731.566406	43.357613	778.635742	640.564270
731.972900	-31.085606	751.663879	647.933228
732.379272	-11.224882	808.047668	586.498840
732.785645	-23.637081	682.959595	547.150757
733.191895	-65.858009	805.597351	544.690979
733.598206	-50.952923	719.774109	544.690979
734.004333	-21.154404	783.538696	726.487549
734.410522	-58.404926	707.504639	579.122803
734.816528	-31.085606	596.980530	525.007385
735.222656	-50.952923	756.568481	549.610718
735.628662	-53.436863	670.683655	542.230835
736.034546	1.184703	653.493530	574.205200
736.440430	-88.222603	678.049377	569.286987
736.846252	-6.260815	655.949280	512.701965
737.252014	16.072655	660.861145	603.706238
737.657715	-88.222603	609.269897	525.007385
738.063354	-60.889179	663.316895	579.122803
738.468933	-55.920906	624.014282	517.624390
738.874512	-41.018353	651.037415	569.286987
739.280029	-13.707139	599.438660	579.122803
739.685486	-16.189367	653.493530	500.394440
740.090881	-33.568565	528.117004	525.007385
740.496216	30.956865	695.233215	485.622345
740.901550	-11.224882	700.142212	493.008942
741.306702	-18.671833	651.037415	517.624390
741.711914	-65.858009	628.928467	441.285828
742.117004	-41.018353	638.755432	495.470703
742.522095	-65.858009	565.017151	470.846893
742.927124	-16.189367	547.799683	490.546844
743.332031	-26.119728	604.354309	453.604553
743.737000	-38.535076	550.259644	490.546844
744.141785	-26.119728	513.351196	441.285828
744.546631	-53.436863	471.496307	448.677246
744.951355	-13.707139	481.347076	453.604553
745.356079	-28.602615	528.117004	401.849792
745.760620	-28.602615	486.271637	463.457764
746.165283	-43.501873	459.181030	443.749542
746.569824	-55.920906	572.394531	340.182343
746.974243	-6.260815	466.570648	347.585449
747.378723	-36.051769	454.254120	473.309753
747.783020	-6.260815	533.038269	416.641083
748.187378	-31.085606	461.644287	364.856415
748.591614	-38.535076	471.496307	369.790161
748.995850	-26.119728	417.291046	446.213440
749.399963	38.397568	446.863373	369.790161
749.804077	-26.119728	456.717590	320.436005
750.208130	-83.251991	449.327148	340.182343
750.612122	-6.260815	432.079041	238.916687
751.016052	28.476376	343.300934	298.213928
751.419922	55.755642	355.638580	320.436005
751.823792	-21.154404	385.239166	337.714355
752.227478	33.437248	419.755920	325.372955
752.631226	-48.469223	370.440582	313.029419
753.034851	-63.373543	427.150085	308.091217
753.438477	6.147725	377.840454	347.585449
753.842102	-48.469223	412.361206	308.091217
754.245544	-16.189367	269.223846	327.841431
754.648987	-43.501873	343.300934	271.043060
755.052368	-16.189367	293.926025	226.555740
755.455750	33.437248	271.694519	305.622253
755.859009	43.357613	261.811462	209.246658
756.262268	11.110331	288.986328	179.562317
756.665405	-55.920906	323.555603	243.860107
757.068542	-120.542297	370.440582	177.087936
757.471680	-43.501873	303.804016	241.388306
757.874634	40.877644	276.635620	258.688538
758.277588	-63.373543	214.844635	229.028122
758.680420	-26.119728	237.096512	194.406219
759.083374	-23.637081	274.165100	186.984726
759.486084	-18.671833	187.637192	219.138245
759.888916	48.317108	264.282440	224.083252
760.291504	-3.778872	182.689133	253.746292
760.694214	-53.436863	212.371948	139.960907
761.096802	28.476376	229.680283	164.714828
761.499268	-36.051769	298.865082	162.239838
761.901733	-45.985493	298.865082	201.826828
762.304199	-36.051769	217.317505	177.087936
762.706543	-63.373543	256.869202	102.811005
763.108826	3.666199	229.680283	209.246658
763.511108	-31.085606	227.207932	224.083252
763.913208	-75.796677	180.214874	157.289719
764.315369	8.629148	207.425751	127.580093
764.717529	25.995920	214.844635	199.353470
765.119568	-13.707139	269.223846	115.196884
765.521545	-85.737175	234.624451	182.036606
765.923462	-31.085606	204.952499	115.196884
766.325317	-95.679382	229.680283	90.422707
766.727112	-63.373543	212.371948	186.984726
767.128845	-8.742728	232.152298	90.422707
767.530518	-38.535076	165.367538	122.627136
767.932251	-11.224882	207.425751	130.056488
768.333862	-26.119728	251.926559	80.510155
768.735413	48.317108	207.425751	204.300201
769.136841	-65.858009	214.844635	137.484924
769.538269	-31.085606	165.367538	122.627136
769.939636	18.553661	187.637192	110.242790
770.341003	-21.154404	98.509460	154.814438
770.742249	-50.952923	140.613892	182.036606
771.143433	-26.119728	167.842255	174.613602
771.544617	-73.311920	162.892578	157.289719
771.945740	28.476376	138.137924	122.627136
772.346802	21.034428	170.317001	68.117126
772.747803	-36.051769	91.076096	95.378304
773.148682	-18.671833	222.262909	147.388123
773.549622	16.072655	180.214874	137.484924
773.950439	3.666199	115.850006	23.481091
774.351196	-38.535076	152.991898	174.613602
774.751892	3.666199	91.076096	92.900490
775.152588	-31.085606	66.291969	85.466568
775.553162	58.234997	128.233215	144.912430
775.953735	33.437248	160.417526	95.378304
776.354309	-88.222603	125.756744	95.378304
776.754639	-3.778872	167.842255	159.764755
777.155090	-53.436863	172.791656	105.288414
777.555420	-28.602615	100.986908	60.680130
777.955750	-6.260815	130.709564	85.466568
778.355896	6.147725	165.367538	75.553200
778.756104	-31.085606	105.941765	87.944695
779.156189	-16.189367	148.041031	135.008835
779.556274	-70.827133	78.685379	85.466568
779.956299	6.147725	118.326874	70.595963
780.356201	-26.119728	192.584869	105.288414
780.756165	-26.119728	108.418915	75.553200
781.156006	-73.311920	155.467255	45.803356
781.555786	13.591545	100.986908	80.510155
781.955505	-33.568565	96.031769	-6.294834
782.355225	-3.778872	143.089600	110.242790
782.754761	-6.260815	31.576902	48.283123
783.154358	-80.766777	130.709564	92.900490
783.553894	-53.436863	96.031769	8.595003
783.953369	-16.189367	110.896088	87.944695
784.352783	-13.707139	133.185699	65.638184
784.752075	-28.602615	31.576902	70.595963
785.151367	-38.535076	113.373169	25.961786
785.550598	-33.568565	58.854752	40.843517
785.949768	16.072655	88.598236	130.056488
786.348877	-41.018353	66.291969	23.481091
786.747986	-36.051769	83.641945	78.031723
787.147034	16.072655	39.017666	85.466568
787.545959	-60.889179	68.770889	127.580093
787.944885	13.591545	148.041031	55.721661
788.343750	-38.535076	61.333969	63.159271
788.742493	-98.165230	81.163788	-16.223526
789.141235	-53.436863	51.416599	13.557538
789.539917	-68.342453	103.464386	-41.052528
789.938538	6.147725	118.326874	13.557538
790.337158	65.672295	56.375423	63.159271
790.735718	50.796768	58.854752	40.843517
791.134094	-65.858009	56.375423	13.557538
791.532532	-33.568565	51.416599	43.323486
791.930847	-55.920906	140.613892	-16.223526
792.329224	-31.085606	78.685379	38.363579
792.727417	63.193253	-3.158469	33.403114
793.125610	1.184703	138.137924	-33.602737
793.523682	33.437248	103.464386	28.442379
793.921753	-50.952923	83.641945	23.481091
794.319824	-75.796677	96.031769	45.803356
794.717773	1.184703	43.977524	-11.259038
795.115723	16.072655	78.685379	92.900490
795.513550	35.917530	78.685379	-11.259038
795.911377	3.666199	96.031769	48.283123
796.309082	65.672295	14.211764	63.159271
796.706787	-41.018353	29.096577	6.113579
797.104370	-55.920906	76.206879	11.076322
797.501953	21.034428	58.854752	6.113579
797.899536	-103.137115	56.375423	11.076322
798.296936	-31.085606	76.206879	35.883400
798.694397	38.397568	130.709564	-18.705994
799.091736	-21.154404	81.163788	48.283123
799.489014	35.917530	29.096577	55.721661
799.886230	11.110331	9.249419	70.595963
800.283447	16.072655	41.497578	30.922867
800.680542	35.917530	88.598236	90.422707
801.077637	-80.766777	14.211764	-48.503269
801.474670	-110.595825	36.537514	-41.052528
801.871643	-90.708138	81.163788	30.922867
802.268555	-78.281677	14.211764	48.283123
802.665405	21.034428	31.576902	-13.741162
803.062256	6.147725	58.854752	80.510155
803.458923	-70.827133	48.936966	-16.223526
803.855652	-28.602615	-10.604401	58.200878
804.252258	28.476376	76.206879	16.038515
804.648804	-65.858009	68.770889	18.519522
805.045410	-33.568565	91.076096	-1.331183
805.441833	-28.602615	108.418915	60.680130
805.838257	-28.602615	63.813091	21.000425
806.234619	-16.189367	76.206879	-21.188433
806.630859	-18.671833	14.211764	-43.536049
807.027100	16.072655	19.173828	30.922867
807.423279	23.515226	-5.640252	75.553200
807.819458	35.917530	36.537514	3.632186
808.215515	6.147725	29.096577	60.680130
808.611572	28.476376	-5.640252	3.632186
809.007507	-70.827133	19.173828	-21.188433
809.403381	-23.637081	36.537514	-50.987103
809.799194	-60.889179	88.598236	-1.331183
810.195068	-45.985493	81.163788	-41.052528
810.590759	-55.920906	86.120140	-13.741162
810.986450	-26.119728	9.249419	-31.119638
811.382080	-28.602615	48.936966	1.150554
811.777649	-28.602615	29.096577	-48.503269
812.173157	-28.602615	4.286657	35.883400
812.568665	-28.602615	-25.499090	28.442379
812.964050	-53.436863	-15.568833	-11.259038
813.359375	-13.707139	-3.158469	21.000425
813.754639	-43.501873	93.553986	50.762650
814.149841	-36.051769	-10.604401	-38.569115
814.545105	-33.568565	43.977524	1.150554
814.940186	-16.189367	19.173828	-33.602737
815.335266	-41.018353	9.249419	82.988342
815.730347	-65.858009	-42.881050	50.762650
816.125244	-21.154404	-0.676656	110.242790
816.520203	-85.737175	86.120140	-26.153893
816.914978	-11.224882	24.135342	-11.259038
817.309753	-45.985493	81.163788	-48.503269
817.704468	-48.469223	93.553986	30.922867
818.099182	-41.018353	71.249695	16.038515
818.493774	53.276192	68.770889	-8.776884
818.888367	73.108673	11.730711	-23.671110
819.282898	53.276192	19.173828	53.242207
819.677307	78.065834	63.813091	11.076322
820.071716	-80.766777	36.537514	-58.439106
820.466003	-21.154404	103.464386	-50.987103
820.860291	-68.342453	48.936966	40.843517
821.254517	-55.920906	86.120140	23.481091
821.648743	-70.827133	56.375423	11.076322
822.042786	-53.436863	36.537514	-46.019539
822.436890	-55.920906	41.497578	63.159271
822.830872	-120.542297	4.286657	-31.119638
823.224792	-21.154404	4.286657	45.803356
823.618774	-6.260815	26.616011	33.403114
824.012512	-53.436863	14.211764	11.076322
824.406311	6.147725	-18.051275	-70.861320
824.799988	-16.189367	43.977524	-31.119638
825.193665	-75.796677	-10.604401	-16.223526
825.587280	-31.085606	86.120140	23.481091
825.980835	-50.952923	-8.122274	25.961786
826.374329	-83.251991	-0.676656	25.961786
826.767761	-60.889179	-15.568833	13.557538
827.161194	-128.003250	19.173828	1.150554
827.554443	16.072655	-40.397556	-13.741162
827.947754	-1.297032	-5.640252	-68.376640
828.340942	-3.778872	36.537514	-16.223526
828.734131	-118.055481	1.805053	55.721661
829.127136	1.184703	-5.640252	-48.503269
829.520264	-68.342453	-27.981951	18.519522
829.913208	45.837345	21.654705	-1.331183
830.306152	-28.602615	-40.397556	63.159271
830.699097	-33.568565	-3.158469	-36.085941
831.091797	-78.281677	11.730711	18.519522
831.484619	-28.602615	-23.016335	-36.085941
831.877319	-6.260815	21.654705	-93.227837
832.270020	-85.737175	19.173828	23.481091
832.662537	6.147725	-15.568833	11.076322
833.055054	18.553661	-45.364647	-16.223526
833.447510	-31.085606	4.286657	-3.812888
833.839966	-73.311920	-62.752510	16.038515
834.232361	-11.224882	-37.914173	-33.602737
834.624634	-8.742728	-27.981951	-50.987103
835.016907	-8.742728	76.206879	-48.503269
835.409058	-65.858009	51.416599	6.113579
835.801208	13.591545	6.768023	30.922867
836.193298	-48.469223	83.641945	-31.119638
836.585327	-3.778872	43.977524	-3.812888
836.977295	-16.189367	41.497578	30.922867
837.369202	21.034428	29.096577	-31.119638
837.761047	-13.707139	-55.299820	-46.019539
838.152832	-41.018353	63.813091	-46.019539
838.544617	-38.535076	81.163788	16.038515
838.936218	-75.796677	-13.086497	-6.294834
839.327942	-21.154404	34.057262	-53.471043
839.719421	-33.568565	-13.086497	-78.315872
840.111023	-26.119728	9.249419	-13.741162
840.502380	-55.920906	53.896133	-13.741162
840.893860	-58.404926	-77.660484	50.762650
841.285217	-53.436863	-5.640252	-36.085941
841.676453	-48.469223	-50.332020	-58.439106
842.067749	-85.737175	31.576902	6.113579
842.458862	-65.858009	-25.499090	8.595003
842.849976	-3.778872	-47.848213	-11.259038
843.241028	3.666199	-27.981951	13.557538
843.632019	-33.568565	6.768023	-36.085941
844.022949	30.956865	39.017666	16.038515
844.413879	-80.766777	-25.499090	-60.923367
844.804749	-50.952923	34.057262	21.000425
845.195496	13.591545	-15.568833	-23.671110
845.586182	-1.297032	16.692848	-48.503269
845.976807	-90.708138	-37.914173	-3.812888
846.367432	-55.920906	-10.604401	-48.503269
846.757996	-45.985493	-15.568833	-3.812888
847.148499	-45.985493	14.211764	-16.223526
847.538879	-75.796677	-45.364647	-21.188433
847.929260	16.072655	-5.640252	50.762650
848.319641	11.110331	-10.604401	-1.331183
848.709839	-31.085606	58.854752	-41.052528
849.100098	-13.707139	-5.640252	-88.256668
849.490234	-26.119728	-25.499090	-38.569115
849.880310	-50.952923	-62.752510	85.466568
850.270325	-150.392059	-0.676656	-21.188433
850.660339	-48.469223	-23.016335	-63.407593
851.050171	28.476376	46.457363	-33.602737
851.440125	-85.737175	19.173828	-26.153893
851.829895	-16.189367	6.768023	-26.153893
852.219604	35.917530	-35.431026	-50.987103
852.609314	3.666199	56.375423	-73.345978
852.998901	-41.018353	-45.364647	-85.771378
853.388550	-75.796677	-47.848213	-43.536049
853.778015	21.034428	41.497578	-70.861320
854.167480	-83.251991	-13.086497	-33.602737
854.556885	60.714241	56.375423	-46.019539
854.946228	-60.889179	-45.364647	21.000425
855.335571	-50.952923	-27.981951	-36.085941
855.724731	-132.977844	11.730711	-68.376640
856.113953	-75.796677	53.896133	63.159271
856.503052	-41.018353	14.211764	16.038515
856.892151	-1.297032	39.017666	-8.776884
857.281067	-33.568565	19.173828	-85.771378
857.670105	-58.404926	-3.158469	13.557538
858.058960	-33.568565	46.457363	-43.536049
858.447754	-55.920906	-102.515656	40.843517
858.836609	-36.051769	19.173828	-43.536049
859.225281	-23.637081	-45.364647	1.150554
859.613892	-3.778872	-47.848213	-6.294834
860.002502	45.837345	-30.464781	3.632186
860.391052	30.956865	-52.815933	1.150554
860.779541	-88.222603	-3.158469	80.510155
861.167969	-26.119728	29.096577	-88.256668
861.556335	-58.404926	-57.783943	28.442379
861.944702	35.917530	-23.016335	-1.331183
862.332947	-43.501873	-67.721367	75.553200
862.721069	33.437248	-23.016335	-3.812888
863.109253	-38.535076	34.057262	-33.602737
863.497314	-26.119728	21.654705	-23.671110
863.885376	3.666199	26.616011	-8.776884
864.273315	13.591545	36.537514	1.150554
864.661255	-26.119728	-65.236816	-41.052528
865.049072	-26.119728	21.654705	-16.223526
865.436890	13.591545	-25.499090	-6.294834
865.824707	-43.501873	53.896133	23.481091
866.212280	-50.952923	53.896133	-48.503269
866.599915	16.072655	-25.499090	60.680130
866.987488	-18.671833	1.805053	-3.812888
867.375061	-73.311920	-42.881050	-90.742203
867.762451	-73.311920	-18.051275	-43.536049
868.149841	25.995920	4.286657	-26.153893
868.537170	-55.920906	1.805053	8.595003
868.924438	-60.889179	-30.464781	-18.705994
869.311707	-3.778872	-18.051275	-70.861320
869.698853	16.072655	-45.364647	-23.671110
870.085938	-50.952923	56.375423	-26.153893
870.472961	-58.404926	-72.690643	13.557538
870.859985	-70.827133	43.977524	-13.741162
871.246887	11.110331	19.173828	8.595003
871.633789	-23.637081	-32.947849	-23.671110
872.020569	11.110331	-55.299820	35.883400
872.407349	-55.920906	-23.016335	-3.812888
872.794067	-1.297032	19.173828	-73.345978
873.180725	-11.224882	-10.604401	-6.294834
873.567322	35.917530	-5.640252	21.000425
873.953796	-21.154404	-52.815933	-65.892067
874.340332	-43.501873	-72.690643	-28.636646
874.726624	-65.858009	-72.690643	-130.524719
875.113037	-13.707139	-10.604401	-98.199303
875.499329	-31.085606	-8.122274	-1.331183
875.885559	-26.119728	-23.016335	-38.569115
876.271729	16.072655	9.249419	-18.705994
876.657898	3.666199	-18.051275	-3.812888
877.044006	-53.436863	-55.299820	-18.705994
877.429932	-23.637081	-77.660484	-41.052528
877.815918	25.995920	9.249419	-75.830872
878.201782	-8.742728	41.497578	6.113579
878.587585	-23.637081	58.854752	11.076322
878.973389	3.666199	-13.086497	18.519522
879.359070	13.591545	-18.051275	11.076322
879.744751	21.034428	6.768023	50.762650
880.130310	-36.051769	-82.630608	-28.636646
880.515930	-83.251991	71.249695	-41.052528
880.901367	-55.920906	-30.464781	28.442379
881.286804	-45.985493	-30.464781	-26.153893
881.672180	-1.297032	11.730711	-43.536049
882.057434	-93.193634	-15.568833	-115.602997
882.442749	-75.796677	26.616011	-95.713585
882.827942	13.591545	4.286657	-68.376640
883.213013	-21.154404	26.616011	63.159271
883.598145	-53.436863	39.017666	-16.223526
883.983154	-11.224882	-85.115906	-70.861320
884.368042	-90.708138	-15.568833	-50.987103
884.753052	-43.501873	-13.086497	28.442379
885.137817	-31.085606	-25.499090	-21.188433
885.522644	-36.051769	26.616011	-11.259038
885.907349	25.995920	-90.086670	16.038515
886.292053	-23.637081	16.692848	-43.536049
886.676636	-13.707139	-0.676656	60.680130
887.061157	-70.827133	-20.533821	25.961786
887.445740	-18.671833	-18.051275	-3.812888
887.830078	53.276192	-20.533821	-3.812888
888.214539	-38.535076	-40.397556	23.481091
888.598816	-41.018353	-23.016335	85.466568
888.983093	-50.952923	-67.721367	45.803356
889.367249	16.072655	-72.690643	-11.259038
889.751465	-53.436863	-82.630608	-73.345978
890.135498	-3.778872	-3.158469	-118.089699
890.519531	-38.535076	16.692848	-103.171333
890.903503	11.110331	-27.981951	13.557538
891.287415	-58.404926	-67.721367	18.519522
891.671326	28.476376	-5.640252	3.632186
892.055054	-6.260815	-42.881050	-83.286057
892.438843	-8.742728	29.096577	-21.188433
892.822510	45.837345	-50.332020	-78.315872
893.206116	-8.742728	-82.630608	-33.602737
893.589661	23.515226	29.096577	-78.315872
893.973206	-80.766777	-13.086497	-31.119638
894.356628	-23.637081	9.249419	-68.376640
894.739990	-68.342453	-10.604401	-68.376640
895.123352	-83.251991	31.576902	-43.536049
895.506592	-36.051769	19.173828	-13.741162
895.889832	-8.742728	-40.397556	-36.085941
896.272949	6.147725	29.096577	38.363579
896.656067	-23.637081	-55.299820	-21.188433
897.039063	-18.671833	-25.499090	28.442379
897.422058	-36.051769	-60.268173	-23.671110
897.804993	-128.003250	-45.364647	-16.223526
898.187866	-11.224882	-47.848213	-58.439106
898.570618	-70.827133	-20.533821	11.076322
898.953369	-60.889179	-70.206017	16.038515
899.336121	-85.737175	-52.815933	-21.188433
899.718689	-31.085606	46.457363	-90.742203
900.101257	-33.568565	-60.268173	8.595003
900.483704	-105.623291	14.211764	-65.892067
900.866211	-1.297032	-8.122274	3.632186
901.248596	6.147725	31.576902	55.721661
901.630920	-26.119728	-0.676656	11.076322
902.013184	-33.568565	-10.604401	3.632186
902.395386	8.629148	-15.568833	11.076322
902.777588	-16.189367	-70.206017	-80.800842
903.159668	8.629148	-15.568833	-21.188433
903.541687	3.666199	-42.881050	-18.705994
903.923645	48.317108	-5.640252	8.595003
904.305603	-63.373543	-23.016335	-11.259038
904.687500	-23.637081	-35.431026	-1.331183
905.069275	-75.796677	-25.499090	-137.986969
905.451050	-48.469223	-52.815933	-70.861320
905.832642	35.917530	-92.572281	-18.705994
906.214294	-118.055481	-77.660484	-16.223526
906.595825	-65.858009	-30.464781	-43.536049
906.977417	13.591545	-25.499090	11.076322
907.358826	-26.119728	14.211764	-26.153893
907.740234	-58.404926	6.768023	-50.987103
908.121582	-11.224882	31.576902	-28.636646
908.502869	-3.778872	4.286657	-6.294834
908.884033	6.147725	9.249419	-31.119638
909.265198	-6.260815	-55.299820	-90.742203
909.646301	-23.637081	-18.051275	11.076322
910.027344	-16.189367	68.770889	-50.987103
910.408325	-75.796677	-72.690643	-50.987103
910.789246	-70.827133	1.805053	25.961786
911.170105	-70.827133	53.896133	-13.741162
911.550903	50.796768	21.654705	-85.771378
911.931641	-50.952923	-72.690643	-8.776884
912.312317	-85.737175	66.291969	-53.471043
912.692932	13.591545	58.854752	-23.671110
913.073547	-11.224882	1.805053	-53.471043
913.453979	3.666199	36.537514	-28.636646
913.834473	-38.535076	-32.947849	-33.602737
914.214783	-6.260815	-32.947849	-88.256668
914.595154	16.072655	-62.752510	-38.569115
914.975464	-100.651054	31.576902	-70.861320
915.355652	8.629148	-20.533821	-31.119638
915.735840	8.629148	4.286657	30.922867
916.115845	25.995920	-50.332020	-36.085941
916.495972	-48.469223	-8.122274	-73.345978
916.875854	6.147725	-102.515656	-48.503269
917.255859	18.553661	-25.499090	53.242207
917.635620	-68.342453	-67.721367	38.363579
918.015503	-23.637081	6.768023	-53.471043
918.395203	-58.404926	-57.783943	-41.052528
918.774902	40.877644	-10.604401	-16.223526
919.154480	8.629148	71.249695	-43.536049
919.534058	-53.436863	-32.947849	21.000425
919.913574	1.184703	-23.016335	18.519522
920.292969	8.629148	14.211764	53.242207
920.672363	-68.342453	-32.947849	-33.602737
921.051636	6.147725	11.730711	-21.188433
921.430969	-55.920906	-18.051275	-16.223526
921.810181	18.553661	-0.676656	-6.294834
922.189331	-6.260815	34.057262	-53.471043
922.568420	-16.189367	-10.604401	-88.256668
922.947388	25.995920	9.249419	-48.503269
923.326416	-16.189367	-117.433868	-70.861320
923.705261	-60.889179	-62.752510	-55.954956
924.084106	-43.501873	-32.947849	-31.119638
924.462891	-28.602615	-47.848213	-70.861320
924.841675	-41.018353	-5.640252	18.519522
925.220337	65.672295	-30.464781	-78.315872
925.598938	-28.602615	-20.533821	-28.636646
925.977478	-65.858009	4.286657	-58.439106
926.355957	-43.501873	-32.947849	-68.376640
926.734436	-55.920906	-3.158469	3.632186
927.112732	-63.373543	34.057262	-68.376640
927.491089	-98.165230	-18.051275	-1.331183
927.869324	8.629148	-10.604401	-58.439106
928.247559	-45.985493	6.768023	-23.671110
928.625671	-1.297032	34.057262	-31.119638
929.003723	-26.119728	-30.464781	-36.085941
929.381775	13.591545	-112.460747	-95.713585
929.759705	-41.018353	-10.604401	-73.345978
930.137634	-55.920906	-18.051275	13.557538
930.515381	33.437248	1.805053	1.150554
930.893250	-3.778872	-60.268173	-70.861320
931.270935	35.917530	-25.499090	-26.153893
931.648560	-63.373543	-90.086670	48.283123
932.026123	-98.165230	-82.630608	11.076322
932.403687	18.553661	-18.051275	-43.536049
932.781250	8.629148	-27.981951	35.883400
933.158630	-110.595825	-30.464781	-43.536049
933.536011	-83.251991	-47.848213	1.150554
933.913208	-21.154404	16.692848	28.442379
934.290527	-23.637081	-27.981951	-90.742203
934.667664	63.193253	-13.086497	-75.830872
935.044800	-3.778872	-8.122274	11.076322
935.421814	-16.189367	-77.660484	-31.119638
935.798889	-45.985493	53.896133	6.113579
936.175842	-100.651054	16.692848	-70.861320
936.552673	-36.051769	-45.364647	-8.776884
936.929504	-90.708138	29.096577	-41.052528
937.306274	-36.051769	4.286657	-16.223526
937.683044	-31.085606	-3.158469	6.113579
938.059570	-68.342453	-70.206017	16.038515
938.436218	25.995920	-13.086497	18.519522
938.812744	-21.154404	-20.533821	-33.602737
939.189148	13.591545	-27.981951	-16.223526
939.565613	-3.778872	-18.051275	-48.503269
939.941956	-50.952923	34.057262	-43.536049
940.318237	-45.985493	-18.051275	-68.376640
940.694458	-65.858009	-55.299820	-8.776884
941.070557	-53.436863	-15.568833	3.632186
941.446655	-85.737175	-67.721367	-11.259038
941.822693	-80.766777	41.497578	-60.923367
942.198669	-38.535076	14.211764	-75.830872
942.574646	-45.985493	-50.332020	-16.223526
942.950562	-88.222603	1.805053	-1.331183
943.326294	-60.889179	-57.783943	1.150554
943.702026	-50.952923	-32.947849	-3.812888
944.077698	-48.469223	14.211764	-150.426163
944.453369	13.591545	-30.464781	30.922867
944.828918	-33.568565	-40.397556	-28.636646
945.204468	-60.889179	-8.122274	-43.536049
945.579834	-8.742728	-70.206017	-11.259038
945.955261	38.397568	-97.543686	-28.636646
946.330627	38.397568	6.768023	-16.223526
946.705811	-21.154404	-42.881050	-48.503269
947.081055	1.184703	-13.086497	-83.286057
947.456177	45.837345	-32.947849	-110.630035
947.831238	-68.342453	-18.051275	23.481091
948.206238	28.476376	36.537514	-23.671110
948.581238	-33.568565	-60.268173	-88.256668
948.956116	-63.373543	26.616011	11.076322
949.330933	-28.602615	-42.881050	-43.536049
949.705811	35.917530	46.457363	-58.439106
950.080505	-8.742728	-27.981951	-103.171333
950.455139	-58.404926	11.730711	8.595003
950.829773	-78.281677	36.537514	-65.892067
951.204346	-80.766777	16.692848	-46.019539
951.578735	-31.085606	-32.947849	-28.636646
951.953186	-73.311920	-18.051275	-110.630035
952.327515	-6.260815	-72.690643	-63.407593
952.701843	-18.671833	19.173828	-88.256668
953.076172	-18.671833	-82.630608	-21.188433
953.450195	-50.952923	-5.640252	3.632186
953.824341	-50.952923	-47.848213	-28.636646
954.198486	-70.827133	-32.947849	-55.954956
954.572449	-43.501873	-13.086497	-48.503269
954.946350	-80.766777	-20.533821	-1.331183
955.320251	25.995920	-27.981951	28.442379
955.694092	13.591545	-3.158469	-33.602737
956.067871	-80.766777	-80.145561	-23.671110
956.441589	3.666199	76.206879	-88.256668
956.815125	-50.952923	-60.268173	-50.987103
957.188721	-58.404926	-3.158469	-78.315872
957.562256	-31.085606	-18.051275	-68.376640
957.935730	6.147725	-55.299820	58.200878
958.309021	-26.119728	-87.601303	-58.439106
958.682373	-103.137115	-13.086497	3.632186
959.055664	-1.297032	56.375423	-63.407593
959.428955	-8.742728	61.333969	6.113579
959.802063	-60.889179	1.805053	28.442379
960.175110	-21.154404	-32.947849	8.595003
960.548157	33.437248	-37.914173	-18.705994
960.921143	-23.637081	-8.122274	-28.636646
961.294128	-31.085606	26.616011	-16.223526
961.666809	-75.796677	-30.464781	-31.119638
962.039612	21.034428	-23.016335	28.442379
962.412415	-6.260815	58.854752	65.638184
962.785095	-36.051769	-37.914173	-100.685265
963.157715	-70.827133	14.211764	60.680130
963.530151	-88.222603	-52.815933	-3.812888
963.902649	-45.985493	-47.848213	-73.345978
964.275146	18.553661	-25.499090	-48.503269
964.647522	-68.342453	-23.016335	-41.052528
965.019714	-125.516251	-27.981951	-16.223526
965.392029	30.956865	14.211764	-137.986969
965.764160	8.629148	-27.981951	30.922867
966.136292	21.034428	31.576902	-6.294834
966.508423	8.629148	-5.640252	-95.713585
966.880371	-18.671833	-50.332020	3.632186
967.252319	-95.679382	51.416599	8.595003
967.624207	-3.778872	-15.568833	-21.188433
967.996094	25.995920	34.057262	-33.602737
968.367737	-100.651054	-30.464781	-16.223526
968.739441	-13.707139	11.730711	8.595003
969.111084	-3.778872	-37.914173	-73.345978
969.482666	-38.535076	-37.914173	-55.954956
969.854248	-63.373543	1.805053	-6.294834
970.225586	-55.920906	43.977524	-23.671110
970.596985	16.072655	34.057262	8.595003
970.968323	-16.189367	-3.158469	-38.569115
971.339661	11.110331	36.537514	-78.315872
971.710754	-18.671833	-20.533821	-13.741162
972.081909	-45.985493	-47.848213	-46.019539
972.453064	-41.018353	-3.158469	-60.923367
972.824097	-70.827133	-35.431026	-78.315872
973.194946	-11.224882	-27.981951	-8.776884
973.565918	13.591545	-60.268173	-21.188433
973.936768	16.072655	11.730711	-120.576523
974.307556	-65.858009	-0.676656	-123.063309
974.678284	-1.297032	-35.431026	-26.153893
975.048828	-50.952923	29.096577	-115.602997
975.419495	-43.501873	-18.051275	-70.861320
975.790039	-53.436863	-35.431026	-90.742203
976.160522	-26.119728	-8.122274	-43.536049
976.530884	-43.501873	-20.533821	-88.256668
976.901245	-58.404926	29.096577	60.680130
977.271606	-48.469223	26.616011	-38.569115
977.641846	3.666199	4.286657	-50.987103
978.012024	-55.920906	-20.533821	-55.954956
978.382019	-8.742728	9.249419	-23.671110
978.752136	-70.827133	-15.568833	-113.116531
979.122131	16.072655	-30.464781	-75.830872
979.492065	-63.373543	-27.981951	-18.705994
979.861877	3.666199	29.096577	-38.569115
980.231689	-93.193634	16.692848	-28.636646
980.601440	-68.342453	-60.268173	-6.294834
980.971191	-78.281677	63.813091	-3.812888
981.340820	-43.501873	19.173828	-33.602737
981.710266	23.515226	-52.815933	-55.954956
982.079773	-11.224882	-23.016335	-31.119638
982.449280	-73.311920	24.135342	-11.259038
982.818604	3.666199	6.768023	-33.602737
983.187866	-105.623291	-5.640252	-13.741162
983.557129	-58.404926	-85.115906	-63.407593
983.926331	-28.602615	-8.122274	-33.602737
984.295471	30.956865	39.017666	-36.085941
984.664612	-43.501873	-35.431026	-58.439106
985.033569	-58.404926	73.728271	-41.052528
985.402527	-60.889179	31.576902	6.113579
985.771362	-55.920906	-70.206017	-18.705994
986.140259	-21.154404	4.286657	-43.536049
986.508911	-55.920906	4.286657	-110.630035
986.877625	-31.085606	11.730711	-78.315872
987.246277	-18.671833	-10.604401	-13.741162
987.614929	-31.085606	-20.533821	-60.923367
987.983459	-16.189367	-27.981951	-31.119638
988.351807	21.034428	-45.364647	-48.503269
988.720215	-8.742728	-112.460747	-46.019539
989.088623	-93.193634	-10.604401	16.038515
989.456909	55.755642	-23.016335	-53.471043
989.825012	-43.501873	-42.881050	-88.256668
990.193115	-70.827133	-20.533821	-36.085941
990.561279	11.110331	-10.604401	-65.892067
990.929321	80.544128	31.576902	1.150554
991.297302	50.796768	-70.206017	-85.771378
991.665100	-6.260815	39.017666	-8.776884
992.033020	-38.535076	-5.640252	-11.259038
992.400818	-63.373543	-25.499090	-41.052528
992.768494	-105.623291	-27.981951	-48.503269
993.136047	-93.193634	51.416599	-105.657364
993.503723	-1.297032	9.249419	-78.315872
993.871277	-53.436863	-65.236816	-1.331183
994.238770	-65.858009	-82.630608	38.363579
994.606140	-23.637081	-32.947849	-88.256668
994.973450	-13.707139	-0.676656	-63.407593
995.340759	-16.189367	-8.122274	-75.830872
995.708008	-50.952923	-23.016335	-16.223526
996.075195	-50.952923	-15.568833	-53.471043
996.442200	-85.737175	-23.016335	6.113579
996.809265	-48.469223	-20.533821	-11.259038
997.176270	-31.085606	-40.397556	-63.407593
997.543152	-31.085606	21.654705	-13.741162
997.910095	-8.742728	-25.499090	33.403114
998.276733	-55.920906	-65.236816	-21.188433
998.643494	8.629148	16.692848	53.242207
999.010193	-1.297032	-27.981951	-23.671110
999.376831	68.151237	-5.640252	11.076322
999.743286	63.193253	-0.676656	-33.602737
1000.109802	-3.778872	-40.397556	1.150554
1000.476257	-18.671833	-13.086497	-98.199303
1000.842651	1.184703	-45.364647	-68.376640
1001.208923	-8.742728	-20.533821	-73.345978
1001.575134	-33.568565	-42.881050	-23.671110
1001.941284	30.956865	-8.122274	-50.987103
1002.307434	-11.224882	16.692848	-26.153893
1002.673523	-26.119728	-154.746429	-36.085941
1003.039429	11.110331	-77.660484	-78.315872
1003.405334	33.437248	-42.881050	-16.223526
1003.771179	-21.154404	-10.604401	-43.536049
1004.137024	-16.189367	39.017666	-73.345978
1004.502808	8.629148	-50.332020	-80.800842
1004.868408	-8.742728	-40.397556	-11.259038
1005.234009	-38.535076	-30.464781	-31.119638
1005.599609	21.034428	-47.848213	-60.923367
1005.965149	-36.051769	-50.332020	-46.019539
1006.330444	-38.535076	-3.158469	16.038515
1006.695862	-63.373543	-25.499090	-3.812888
1007.061218	-88.222603	-3.158469	-36.085941
1007.426453	-38.535076	-20.533821	-43.536049
1007.791626	-26.119728	-70.206017	16.038515
1008.156677	-53.436863	-15.568833	43.323486
1008.521729	-31.085606	-32.947849	-38.569115
1008.886780	-68.342453	36.537514	-58.439106
1009.251709	-58.404926	21.654705	-33.602737
1009.616577	-100.651054	-27.981951	-23.671110
1009.981384	-73.311920	88.598236	-6.294834
1010.346130	-53.436863	58.854752	-21.188433
1010.710754	-68.342453	-77.660484	8.595003
1011.075439	-105.623291	14.211764	-21.188433
1011.439941	-26.119728	53.896133	-70.861320
1011.804443	-41.018353	6.768023	-11.259038
1012.168884	28.476376	26.616011	-3.812888
1012.533325	-43.501873	26.616011	-55.954956
1012.897522	-38.535076	-20.533821	-93.227837
1013.261780	-48.469223	-35.431026	-18.705994
1013.626038	11.110331	-67.721367	-73.345978
1013.990112	-3.778872	-122.407547	-63.407593
1014.354187	-11.224882	-15.568833	-36.085941
1014.718140	-23.637081	-32.947849	-53.471043
1015.082153	-58.404926	-50.332020	-78.315872
1015.446045	-90.708138	-32.947849	-46.019539
1015.809937	-53.436863	-37.914173	6.113579
1016.173523	-33.568565	-5.640252	-46.019539
1016.537170	6.147725	-23.016335	-43.536049
1016.900879	-18.671833	-3.158469	21.000425
1017.264404	-63.373543	19.173828	23.481091
1017.627991	-53.436863	-52.815933	-16.223526
1017.991333	-11.224882	-30.464781	-78.315872
1018.354675	-16.189367	1.805053	8.595003
1018.718018	25.995920	-5.640252	-100.685265
1019.081299	-13.707139	36.537514	-108.143646
1019.444397	-123.029221	36.537514	-108.143646
1019.807495	30.956865	-42.881050	-13.741162
1020.170593	-45.985493	58.854752	-11.259038
1020.533691	-41.018353	-8.122274	-13.741162
1020.896606	21.034428	-80.145561	-46.019539
1021.259460	-63.373543	-25.499090	3.632186
1021.622253	-85.737175	-32.947849	-118.089699
1021.985046	-6.260815	-77.660484	-33.602737
1022.347778	-6.260815	-70.206017	-48.503269
1022.710327	-103.137115	26.616011	-6.294834
1023.072876	-48.469223	-45.364647	-26.153893
1023.435364	-43.501873	9.249419	70.595963
1023.797852	-93.193634	-95.057999	16.038515
1024.160278	-90.708138	-65.236816	-33.602737
1024.522461	-21.154404	1.805053	-13.741162
1024.884766	-41.018353	-27.981951	-53.471043
1025.246948	-105.623291	-72.690643	25.961786
1025.609131	23.515226	-10.604401	30.922867
1025.971069	-23.637081	-20.533821	-55.954956
1026.333130	-33.568565	26.616011	-41.052528
1026.694946	-45.985493	-47.848213	-95.713585
1027.056885	-41.018353	-95.057999	-58.439106
1027.418823	-31.085606	41.497578	-80.800842
1027.780396	-28.602615	-57.783943	-23.671110
1028.142090	-6.260815	-72.690643	3.632186
1028.503784	-8.742728	-87.601303	-48.503269
1028.865479	-16.189367	-95.057999	-78.315872
1029.226807	-18.671833	-32.947849	3.632186
1029.588135	-18.671833	-25.499090	-73.345978
1029.949707	-60.889179	9.249419	-33.602737
1030.310913	23.515226	4.286657	-43.536049
1030.672241	-11.224882	-57.783943	-73.345978
1031.033325	-63.373543	48.936966	-41.052528
1031.394531	3.666199	39.017666	-11.259038
1031.755493	8.629148	-40.397556	48.283123
1032.116577	-60.889179	-3.158469	-80.800842
1032.477417	55.755642	-27.981951	-135.499405
1032.838257	58.234997	19.173828	-11.259038
1033.199097	-70.827133	-25.499090	6.113579
1033.559937	23.515226	-8.122274	-18.705994
1033.920654	23.515226	-13.086497	-48.503269
1034.281128	3.666199	-20.533821	-78.315872
1034.641724	-36.051769	-35.431026	-28.636646
1035.002197	-16.189367	4.286657	-23.671110
1035.362671	-95.679382	39.017666	-6.294834
1035.722900	11.110331	-0.676656	13.557538
1036.083252	-70.827133	-32.947849	18.519522
1036.443481	-118.055481	29.096577	-1.331183
1036.803711	-58.404926	-15.568833	-55.954956
1037.163940	-26.119728	-37.914173	6.113579
1037.523804	-36.051769	39.017666	6.113579
1037.883789	53.276192	-42.881050	-78.315872
1038.243774	-43.501873	11.730711	58.200878
1038.603638	-31.085606	-25.499090	-68.376640
1038.963257	-8.742728	63.813091	-11.259038
1039.323120	73.108673	-18.051275	-73.345978
1039.682861	-3.778872	-35.431026	-60.923367
>>>>>End Processed Spectral Data<<<<<
