Jaz Data File
++++++++++++++++++++++++++++++++++++
Date: Tue Dec 09 09:58:12 2014
User: jaz
Dark Spectrum Present: Yes
Reference Spectrum Present: Yes
Processed Spectrum Present: No
Spectrometers: JAZA2310
Integration Time (usec): 15000 (JAZA2310)
Spectra Averaged: 1 (JAZA2310)
Boxcar Smoothing: 0 (JAZA2310)
Correct for Electrical Dark: Yes (JAZA2310)
Strobe/Lamp Enabled: No (JAZA2310)
Correct for Detector Non-linearity: Yes (JAZA2310)
Correct for Stray Light: No (JAZA2310)
Number of Pixels in Processed Spectrum: 2048
>>>>>Begin Processed Spectral Data<<<<<
W	D	R	S
188.301102	0.000000	0.000000	0.000000
188.764923	0.000000	0.000000	0.000000
189.228699	-28.602615	-65.236816	-106.870468
189.692459	-68.342453	-80.145561	-99.412254
190.156158	16.072655	31.576902	-82.013428
190.619812	-8.742728	-13.086497	-57.167023
191.083435	6.147725	-42.881050	-9.987843
191.547043	38.397568	-15.568833	-17.434637
192.010590	45.837345	4.286657	34.673218
192.474091	-98.165230	-42.881050	104.079628
192.937561	68.151237	61.333969	49.552902
193.401001	38.397568	86.120140	34.673218
193.864410	-6.260815	-8.122274	9.865636
194.327759	-23.637081	-5.640252	9.865636
194.791077	-68.342453	43.977524	2.421347
195.254349	33.437248	46.457363	37.153450
195.717575	-1.297032	4.286657	7.384400
196.180786	53.276192	39.017666	12.346902
196.643951	13.591545	-13.086497	37.153450
197.107071	-38.535076	-3.158469	66.907730
197.570145	48.317108	-40.397556	-19.917156
198.033203	33.437248	4.286657	9.865636
198.496216	-6.260815	14.211764	-2.541988
198.959167	21.034428	-5.640252	-0.060201
199.422089	21.034428	11.730711	-62.135403
199.884979	-48.469223	-42.881050	-82.013428
200.347855	-6.260815	-5.640252	-86.983932
200.810654	-21.154404	4.286657	-2.541988
201.273422	-3.778872	29.096577	4.902926
201.736160	-26.119728	-13.086497	-64.619820
202.198853	13.591545	51.416599	-72.073570
202.661514	-83.251991	-13.086497	-67.104340
203.124130	55.755642	51.416599	-72.073570
203.586700	-50.952923	-45.364647	47.073193
204.049240	-125.516251	-37.914173	14.828064
204.511734	63.193253	11.730711	-52.198933
204.974197	-33.568565	-52.815933	4.902926
205.436615	-16.189367	68.770889	71.865273
205.899002	1.184703	-10.604401	-64.619820
206.361343	-70.827133	56.375423	-17.434637
206.823654	-8.742728	1.805053	-7.505876
207.285919	-58.404926	26.616011	4.902926
207.748123	-1.297032	6.768023	19.789942
208.210327	-13.707139	26.616011	47.073193
208.672485	-73.311920	-0.676656	-69.588829
209.134583	-55.920906	-45.364647	-14.952358
209.596649	-18.671833	-37.914173	14.828064
210.058670	-33.568565	-52.815933	-52.198933
210.520676	-45.985493	-30.464781	-44.747723
210.982635	-8.742728	-27.981951	4.902926
211.444534	-38.535076	-0.676656	-54.682926
211.906403	-75.796677	-20.533821	-37.297462
212.368240	-45.985493	68.770889	19.789942
212.830048	-11.224882	-8.122274	-62.135403
213.291779	-21.154404	-42.881050	-19.917156
213.753494	-21.154404	19.173828	-17.434637
214.215179	-21.154404	14.211764	-39.780819
214.676819	-75.796677	58.854752	-22.399780
215.138412	30.956865	36.537514	32.193020
215.599960	-45.985493	-25.499090	-9.987843
216.061493	-23.637081	-95.057999	-47.231400
216.522949	-45.985493	-37.914173	-14.952358
216.984406	16.072655	36.537514	-27.365210
217.445801	-41.018353	-23.016335	-29.848148
217.907166	-23.637081	-0.676656	-44.747723
218.368484	-118.055481	-15.568833	56.991283
218.829773	-80.766777	-62.752510	-12.470047
219.291031	-38.535076	-5.640252	-77.043221
219.752228	-23.637081	-60.268173	42.113594
220.213379	48.317108	24.135342	17.309122
220.674500	-28.602615	-72.690643	-52.198933
221.135574	-28.602615	-37.914173	-82.013428
221.596634	-43.501873	91.076096	-72.073570
222.057648	-55.920906	-0.676656	-5.023880
222.518600	-21.154404	-13.086497	-5.023880
222.979553	18.553661	-42.881050	-32.331192
223.440430	-98.165230	-18.051275	47.073193
223.901276	-23.637081	-52.815933	-84.498695
224.362076	-6.260815	-18.051275	-39.780819
224.822845	-41.018353	51.416599	27.232048
225.283569	-3.778872	24.135342	-42.264153
225.744278	-11.224882	26.616011	-111.843109
226.204910	-123.029221	61.333969	19.789942
226.665512	53.276192	-15.568833	-64.619820
227.126114	-36.051769	-27.981951	-37.297462
227.586639	11.110331	-40.397556	-84.498695
228.047119	-88.222603	-13.086497	-14.952358
228.507568	30.956865	11.730711	-12.470047
228.967972	-38.535076	11.730711	-22.399780
229.428345	-16.189367	-20.533821	-2.541988
229.888687	-38.535076	-10.604401	-9.987843
230.348984	-11.224882	9.249419	56.991283
230.809219	28.476376	68.770889	-29.848148
231.269440	3.666199	53.896133	-22.399780
231.729614	3.666199	-15.568833	-79.528275
232.189758	6.147725	53.896133	-42.264153
232.649841	-38.535076	-60.268173	-0.060201
233.109894	-31.085606	-72.690643	-12.470047
233.569901	-95.679382	-27.981951	-77.043221
234.029892	68.151237	-25.499090	-14.952358
234.489822	-36.051769	36.537514	61.949650
234.949707	-21.154404	1.805053	-37.297462
235.409561	-23.637081	31.576902	12.346902
235.869385	-3.778872	-82.630608	-12.470047
236.329163	-36.051769	29.096577	-62.135403
236.788895	-80.766777	-65.236816	-14.952358
237.248581	-88.222603	-52.815933	-17.434637
237.708237	-1.297032	-8.122274	-67.104340
238.167847	-50.952923	26.616011	-0.060201
238.627441	-16.189367	29.096577	61.949650
239.086960	-33.568565	43.977524	-22.399780
239.546463	-6.260815	-18.051275	49.552902
240.005920	-75.796677	41.497578	-17.434637
240.465332	-53.436863	-13.086497	-27.365210
240.924698	-78.281677	-35.431026	-14.952358
241.384033	-50.952923	24.135342	-89.469414
241.843338	-78.281677	-8.122274	-42.264153
242.302597	-6.260815	-75.175514	-69.588829
242.761810	3.666199	-13.086497	-49.715179
243.220993	-1.297032	6.768023	-109.356804
243.680115	-65.858009	19.173828	-37.297462
244.139221	-115.568916	-30.464781	-77.043221
244.598282	1.184703	76.206879	-96.926346
245.057297	-38.535076	-62.752510	-72.073570
245.516266	-31.085606	-35.431026	-49.715179
245.975189	35.917530	41.497578	17.309122
246.434082	-8.742728	6.768023	-34.814205
246.892944	-18.671833	36.537514	-34.814205
247.351761	-65.858009	6.768023	2.421347
247.810516	-45.985493	6.768023	-86.983932
248.269272	-3.778872	-18.051275	-101.898262
248.727951	-28.602615	-0.676656	29.712585
249.186600	-18.671833	1.805053	-7.505876
249.645218	-80.766777	39.017666	-14.952358
250.103790	-1.297032	-35.431026	-47.231400
250.562317	-31.085606	73.728271	19.789942
251.020813	-18.671833	58.854752	32.193020
251.479279	-70.827133	-60.268173	-57.167023
251.937668	-1.297032	81.163788	-89.469414
252.396057	-125.516251	21.654705	-82.013428
252.854385	-43.501873	-13.086497	-39.780819
253.312683	-11.224882	6.768023	7.384400
253.770920	6.147725	-32.947849	17.309122
254.229126	-36.051769	-27.981951	-57.167023
254.687302	-26.119728	98.509460	-7.505876
255.145432	-31.085606	-52.815933	-79.528275
255.603500	-8.742728	-0.676656	-67.104340
256.061584	16.072655	-60.268173	-89.469414
256.519592	-105.623291	-37.914173	-86.983932
256.977570	-11.224882	14.211764	-64.619820
257.435455	-41.018353	-13.086497	-42.264153
257.893372	-28.602615	118.326874	9.865636
258.351196	11.110331	19.173828	-37.297462
258.808990	-21.154404	-0.676656	-64.619820
259.266754	-33.568565	-27.981951	-32.331192
259.724487	-23.637081	-50.332020	54.511883
260.182190	-13.707139	9.249419	-42.264153
260.639832	-3.778872	-42.881050	-7.505876
261.097443	-36.051769	-32.947849	-0.060201
261.554993	8.629148	21.654705	-14.952358
262.012512	6.147725	-5.640252	-72.073570
262.469971	28.476376	6.768023	-49.715179
262.927429	-23.637081	9.249419	-34.814205
263.384827	6.147725	43.977524	-54.682926
263.842194	-6.260815	-23.016335	19.789942
264.299530	-41.018353	36.537514	17.309122
264.756805	-18.671833	-27.981951	-34.814205
265.214050	-8.742728	29.096577	-17.434637
265.671234	-103.137115	-18.051275	19.789942
266.128387	-23.637081	-87.601303	-12.470047
266.585510	-58.404926	-55.299820	-47.231400
267.042572	-13.707139	19.173828	-22.399780
267.499573	-132.977844	-67.721367	-69.588829
267.956604	-41.018353	-82.630608	-39.780819
268.413574	-50.952923	6.768023	-106.870468
268.870483	-95.679382	-13.086497	27.232048
269.327362	-33.568565	-5.640252	-44.747723
269.784180	11.110331	-13.086497	9.865636
270.240936	-6.260815	-40.397556	-29.848148
270.697693	-33.568565	-52.815933	109.034241
271.154419	-23.637081	-30.464781	-57.167023
271.611053	-78.281677	34.057262	-114.329659
272.067688	-80.766777	21.654705	34.673218
272.524292	-31.085606	-13.086497	66.907730
272.980835	-55.920906	110.896088	-42.264153
273.437347	-21.154404	-65.236816	-59.651093
273.893799	-73.311920	-32.947849	19.789942
274.350250	-103.137115	-20.533821	-14.952358
274.806610	-28.602615	26.616011	-22.399780
275.262939	-36.051769	24.135342	-37.297462
275.719238	-3.778872	14.211764	32.193020
276.175507	-45.985493	-45.364647	-72.073570
276.631714	-13.707139	-35.431026	-89.469414
277.087891	-70.827133	86.120140	-62.135403
277.544067	33.437248	31.576902	-39.780819
278.000122	-21.154404	11.730711	-12.470047
278.456177	-38.535076	11.730711	-14.952358
278.912201	-95.679382	-8.122274	-5.023880
279.368164	-36.051769	-85.115906	-22.399780
279.824097	33.437248	-65.236816	-64.619820
280.279968	6.147725	-32.947849	19.789942
280.735840	45.837345	21.654705	42.113594
281.191620	-8.742728	14.211764	-17.434637
281.647400	30.956865	21.654705	7.384400
282.103149	75.587303	24.135342	-12.470047
282.558838	-3.778872	-8.122274	-24.882511
283.014465	-21.154404	31.576902	-27.365210
283.470062	-26.119728	-13.086497	-42.264153
283.925629	-63.373543	34.057262	-39.780819
284.381134	-53.436863	-50.332020	-99.412254
284.836639	3.666199	-72.690643	-7.505876
285.292053	-120.542297	26.616011	-57.167023
285.747467	-38.535076	-30.464781	7.384400
286.202820	-58.404926	-65.236816	-42.264153
286.658142	-6.260815	4.286657	-17.434637
287.113434	-13.707139	81.163788	-64.619820
287.568634	11.110331	-23.016335	-12.470047
288.023804	-26.119728	-35.431026	17.309122
288.478973	-36.051769	-82.630608	-27.365210
288.934113	16.072655	-70.206017	-2.541988
289.389130	-95.679382	-35.431026	-94.440552
289.844208	-28.602615	26.616011	-29.848148
290.299164	-53.436863	34.057262	32.193020
290.754089	-38.535076	-23.016335	-14.952358
291.208984	-23.637081	58.854752	-37.297462
291.663879	-31.085606	-10.604401	-96.926346
292.118683	-90.708138	-15.568833	-5.023880
292.573456	-33.568565	36.537514	52.032379
293.028198	-11.224882	-85.115906	-34.814205
293.482849	8.629148	76.206879	-44.747723
293.937561	-95.679382	1.805053	-91.954994
294.392151	-63.373543	-35.431026	12.346902
294.846741	3.666199	-55.299820	-79.528275
295.301239	-60.889179	-47.848213	-54.682926
295.755737	-70.827133	-27.981951	-86.983932
296.210175	-63.373543	4.286657	-69.588829
296.664581	18.553661	-30.464781	-29.848148
297.118958	16.072655	39.017666	-7.505876
297.573242	-55.920906	6.768023	-47.231400
298.027557	-28.602615	-25.499090	-59.651093
298.481812	-23.637081	-60.268173	-34.814205
298.935974	-80.766777	-27.981951	-42.264153
299.390137	-38.535076	91.076096	-37.297462
299.844238	-53.436863	-77.660484	-19.917156
300.298340	-58.404926	-20.533821	-67.104340
300.752350	-93.193634	-15.568833	-37.297462
301.206360	-48.469223	-72.690643	2.421347
301.660278	-48.469223	-45.364647	-39.780819
302.114197	-18.671833	-37.914173	-0.060201
302.568054	-13.707139	-27.981951	27.232048
303.021881	-65.858009	-5.640252	-5.023880
303.475677	-78.281677	-92.572281	4.902926
303.929413	6.147725	9.249419	7.384400
304.383118	-36.051769	-82.630608	-12.470047
304.836761	-6.260815	-45.364647	-24.882511
305.290375	-36.051769	-25.499090	-9.987843
305.743958	-83.251991	-25.499090	-111.843109
306.197510	33.437248	-32.947849	19.789942
306.650970	-120.542297	66.291969	-37.297462
307.104431	3.666199	-5.640252	-82.013428
307.557800	-48.469223	-62.752510	-37.297462
308.011169	-18.671833	-42.881050	-22.399780
308.464508	-16.189367	11.730711	-37.297462
308.917755	25.995920	76.206879	-5.023880
309.371063	18.553661	-27.981951	-37.297462
309.824219	-1.297032	-3.158469	-62.135403
310.277374	11.110331	-77.660484	-17.434637
310.730499	-70.827133	-40.397556	-9.987843
311.183563	-43.501873	-0.676656	-79.528275
311.636597	-26.119728	6.768023	-54.682926
312.089569	45.837345	53.896133	19.789942
312.542511	-28.602615	-3.158469	-44.747723
312.995422	25.995920	39.017666	9.865636
313.448273	23.515226	43.977524	-2.541988
313.901093	-36.051769	4.286657	-57.167023
314.353882	-18.671833	-10.604401	-29.848148
314.806580	-21.154404	-42.881050	-62.135403
315.259308	-55.920906	-52.815933	19.789942
315.711975	28.476376	46.457363	9.865636
316.164581	-21.154404	-57.783943	14.828064
316.617126	-152.880142	4.286657	-47.231400
317.069672	-65.858009	43.977524	-5.023880
317.522156	1.184703	61.333969	19.789942
317.974579	-16.189367	-15.568833	-54.682926
318.427002	-41.018353	-25.499090	2.421347
318.879333	-26.119728	-18.051275	12.346902
319.331665	-6.260815	26.616011	-22.399780
319.783936	-55.920906	-47.848213	-5.023880
320.236176	-60.889179	-32.947849	-37.297462
320.688354	-48.469223	19.173828	-104.384247
321.140503	-33.568565	-3.158469	-44.747723
321.592651	-36.051769	11.730711	-7.505876
322.044647	3.666199	16.692848	-5.023880
322.496704	-38.535076	24.135342	-42.264153
322.948639	-70.827133	-8.122274	-106.870468
323.400604	-142.928192	-10.604401	-5.023880
323.852509	-13.707139	-10.604401	-14.952358
324.304352	-3.778872	-18.051275	-32.331192
324.756165	-58.404926	-13.086497	2.421347
325.207916	-36.051769	-10.604401	24.751539
325.659668	-23.637081	48.936966	91.691605
326.111328	-1.297032	39.017666	27.232048
326.562988	-31.085606	-13.086497	-59.651093
327.014557	-73.311920	26.616011	-59.651093
327.466156	-70.827133	9.249419	-44.747723
327.917664	-28.602615	39.017666	-29.848148
328.369110	6.147725	1.805053	-12.470047
328.820557	-11.224882	1.805053	-27.365210
329.271942	-26.119728	39.017666	-109.356804
329.723297	-73.311920	-23.016335	-96.926346
330.174561	-23.637081	-15.568833	-12.470047
330.625854	33.437248	-15.568833	-64.619820
331.077026	-36.051769	-20.533821	-22.399780
331.528229	-23.637081	11.730711	14.828064
331.979370	-13.707139	6.768023	-37.297462
332.430450	-33.568565	-15.568833	-27.365210
332.881500	-50.952923	-112.460747	-27.365210
333.332489	-1.297032	26.616011	7.384400
333.783478	-18.671833	-10.604401	-22.399780
334.234406	13.591545	-77.660484	49.552902
334.685303	-8.742728	93.553986	-12.470047
335.136078	-83.251991	-57.783943	-94.440552
335.586914	-33.568565	-20.533821	-14.952358
336.037659	-23.637081	11.730711	-62.135403
336.488342	-48.469223	-45.364647	-37.297462
336.939026	8.629148	-27.981951	-5.023880
337.389648	-26.119728	9.249419	-32.331192
337.840240	-48.469223	-20.533821	22.270792
338.290771	-68.342453	-20.533821	-14.952358
338.741272	-33.568565	-42.881050	-37.297462
339.191681	-31.085606	61.333969	17.309122
339.642120	-53.436863	11.730711	14.828064
340.092468	-105.623291	-13.086497	-24.882511
340.542816	-28.602615	29.096577	-2.541988
340.993103	-28.602615	9.249419	-7.505876
341.443329	-36.051769	16.692848	-19.917156
341.893555	-55.920906	29.096577	-59.651093
342.343689	-8.742728	88.598236	-24.882511
342.793793	48.317108	26.616011	-49.715179
343.243866	-6.260815	4.286657	-29.848148
343.693878	-28.602615	16.692848	-86.983932
344.143890	-45.985493	29.096577	-62.135403
344.593842	-60.889179	-72.690643	-0.060201
345.043732	-38.535076	-10.604401	-27.365210
345.493591	-38.535076	6.768023	-24.882511
345.943359	-73.311920	16.692848	-59.651093
346.393158	97.889977	-32.947849	34.673218
346.842896	-63.373543	31.576902	-57.167023
347.292542	-41.018353	46.457363	-64.619820
347.742218	92.934593	-90.086670	-19.917156
348.191803	-11.224882	-35.431026	-5.023880
348.641357	-23.637081	19.173828	44.593376
349.090881	8.629148	29.096577	-24.882511
349.540314	-70.827133	-3.158469	-82.013428
349.989777	-110.595825	-42.881050	-52.198933
350.439148	8.629148	68.770889	-94.440552
350.888489	-48.469223	41.497578	-62.135403
351.337799	38.397568	51.416599	-27.365210
351.787048	-80.766777	-10.604401	24.751539
352.236267	-80.766777	36.537514	42.113594
352.685425	-38.535076	21.654705	-24.882511
353.134552	-11.224882	-13.086497	-17.434637
353.583649	-36.051769	56.375423	4.902926
354.032684	-85.737175	135.661865	-52.198933
354.481659	-23.637081	41.497578	-34.814205
354.930634	-33.568565	19.173828	-47.231400
355.379517	-45.985493	-25.499090	14.828064
355.828430	-45.985493	41.497578	-62.135403
356.277222	-85.737175	-8.122274	-62.135403
356.726013	18.553661	-75.175514	-34.814205
357.174774	-58.404926	1.805053	-17.434637
357.623444	-13.707139	6.768023	-44.747723
358.072113	23.515226	56.375423	-47.231400
358.520721	-18.671833	-75.175514	66.907730
358.969299	3.666199	98.509460	-24.882511
359.417786	-21.154404	11.730711	-2.541988
359.866302	-16.189367	14.211764	-32.331192
360.314697	25.995920	78.685379	-2.541988
360.763123	-43.501873	36.537514	44.593376
361.211456	107.799667	-0.676656	-67.104340
361.659760	-6.260815	58.854752	-14.952358
362.108032	25.995920	43.977524	-57.167023
362.556244	11.110331	16.692848	2.421347
363.004456	21.034428	-0.676656	-14.952358
363.452576	-3.778872	-27.981951	-89.469414
363.900696	-58.404926	-40.397556	-72.073570
364.348663	-31.085606	41.497578	-9.987843
364.796722	-6.260815	-18.051275	27.232048
365.244690	-80.766777	-60.268173	-84.498695
365.692596	-65.858009	-8.122274	-29.848148
366.140472	28.476376	9.249419	-74.558411
366.588287	28.476376	-25.499090	-27.365210
367.036102	-13.707139	41.497578	4.902926
367.483826	-48.469223	11.730711	-67.104340
367.931549	-6.260815	-27.981951	-42.264153
368.379181	13.591545	-10.604401	-74.558411
368.826843	-21.154404	4.286657	7.384400
369.274384	-78.281677	-72.690643	29.712585
369.721924	-48.469223	-20.533821	29.712585
370.169403	-78.281677	-3.158469	-2.541988
370.616821	-83.251991	-32.947849	-2.541988
371.064270	-55.920906	6.768023	-2.541988
371.511566	11.110331	53.896133	14.828064
371.958923	-43.501873	16.692848	-24.882511
372.406158	-43.501873	-3.158469	-47.231400
372.853424	-41.018353	-27.981951	-5.023880
373.300568	-48.469223	9.249419	44.593376
373.747711	-68.342453	26.616011	29.712585
374.194794	-31.085606	-0.676656	-49.715179
374.641846	-58.404926	-10.604401	-39.780819
375.088898	-50.952923	-105.001808	-74.558411
375.535828	-18.671833	34.057262	-0.060201
375.982758	-73.311920	66.291969	-9.987843
376.429596	-11.224882	91.076096	34.673218
376.876465	-38.535076	21.654705	-9.987843
377.323242	13.591545	68.770889	-54.682926
377.769989	-108.109573	-8.122274	2.421347
378.216675	-31.085606	91.076096	-37.297462
378.663330	6.147725	43.977524	-82.013428
379.109985	-60.889179	-42.881050	12.346902
379.556519	-33.568565	-25.499090	-22.399780
380.003052	23.515226	39.017666	-54.682926
380.449524	-48.469223	-50.332020	-52.198933
380.895996	-23.637081	9.249419	12.346902
381.342377	-75.796677	21.654705	32.193020
381.788727	-68.342453	29.096577	-14.952358
382.235046	3.666199	21.654705	-106.870468
382.681274	-43.501873	-65.236816	-59.651093
383.127533	-85.737175	-3.158469	-64.619820
383.573669	-6.260815	-3.158469	-9.987843
384.019836	-43.501873	83.641945	47.073193
384.465912	-48.469223	58.854752	-27.365210
384.911957	-75.796677	-8.122274	-44.747723
385.357971	-48.469223	26.616011	-86.983932
385.803925	-105.623291	39.017666	14.828064
386.249847	-60.889179	53.896133	19.789942
386.695679	-13.707139	-35.431026	-44.747723
387.141541	-13.707139	6.768023	7.384400
387.587311	-43.501873	4.286657	-0.060201
388.033051	11.110331	56.375423	-101.898262
388.478729	23.515226	-47.848213	-29.848148
388.924408	-28.602615	-3.158469	-62.135403
389.369995	-8.742728	-27.981951	-32.331192
389.815552	-55.920906	-40.397556	-52.198933
390.261078	-43.501873	6.768023	-9.987843
390.706543	-21.154404	6.768023	-17.434637
391.152008	-65.858009	6.768023	101.602310
391.597351	-50.952923	36.537514	-44.747723
392.042725	40.877644	34.057262	-74.558411
392.487976	-55.920906	-20.533821	-27.365210
392.933289	-23.637081	71.249695	-42.264153
393.378479	-28.602615	56.375423	12.346902
393.823639	28.476376	9.249419	-62.135403
394.268768	-11.224882	78.685379	-39.780819
394.713837	-23.637081	61.333969	-64.619820
395.158905	-31.085606	16.692848	-2.541988
395.603851	21.034428	-3.158469	7.384400
396.048798	-28.602615	31.576902	-24.882511
396.493683	-41.018353	53.896133	-64.619820
396.938568	13.591545	14.211764	-27.365210
397.383392	-28.602615	19.173828	-67.104340
397.828156	-85.737175	63.813091	74.343956
398.272888	-43.501873	14.211764	-59.651093
398.717560	43.357613	110.896088	-24.882511
399.162201	-55.920906	-37.914173	-69.588829
399.606781	-28.602615	-62.752510	9.865636
400.051361	-33.568565	53.896133	-52.198933
400.495819	-21.154404	51.416599	29.712585
400.940308	-58.404926	93.553986	-52.198933
401.384705	-73.311920	71.249695	9.865636
401.829102	18.553661	103.464386	-7.505876
402.273438	-33.568565	78.685379	-72.073570
402.717682	-78.281677	73.728271	99.124748
403.161926	16.072655	6.768023	-22.399780
403.606110	-8.742728	56.375423	66.907730
404.050293	-63.373543	93.553986	148.655823
404.494385	-11.224882	63.813091	24.751539
404.938446	-18.671833	61.333969	27.232048
405.382477	-103.137115	24.135342	49.552902
405.826447	-38.535076	100.986908	-67.104340
406.270386	-70.827133	96.031769	4.902926
406.714233	21.034428	125.756744	7.384400
407.158081	-26.119728	140.613892	-2.541988
407.601868	-65.858009	165.367538	12.346902
408.045624	-58.404926	152.991898	19.789942
408.489319	-3.778872	86.120140	42.113594
408.933014	-70.827133	150.516449	42.113594
409.376617	-31.085606	224.735474	7.384400
409.820190	-98.165230	266.753052	76.822533
410.263702	-65.858009	251.926559	12.346902
410.707184	28.476376	254.397934	-24.882511
411.150635	11.110331	264.282440	66.907730
411.594025	8.629148	264.282440	128.848206
412.037384	-48.469223	353.171204	4.902926
412.480682	-63.373543	367.973816	66.907730
412.923981	25.995920	469.033356	37.153450
413.367126	-60.889179	540.419312	76.822533
413.810333	-45.985493	456.717590	153.606781
414.253479	16.072655	535.498840	106.556984
414.696533	-43.501873	594.522278	118.942101
415.139587	-38.535076	660.861145	96.647095
415.582581	-53.436863	665.772583	116.465256
416.025543	-45.985493	798.245178	165.982162
416.468414	-36.051769	830.098511	252.540436
416.911285	35.917530	837.447266	264.896057
417.354065	-128.003250	940.247437	220.404465
417.796875	45.837345	1147.842773	267.366943
418.239594	-78.281677	1113.691406	297.009064
418.682281	-73.311920	1250.201416	311.824860
419.124908	-58.404926	1410.769043	373.519897
419.567505	-31.085606	1422.919678	393.249695
420.010071	-13.707139	1585.552490	353.783966
420.452545	-18.671833	1631.610962	506.578217
420.895020	-23.637081	1788.980225	435.155365
421.337372	21.034428	1958.117065	462.256042
421.779785	-50.952923	2047.379883	494.269592
422.222107	-11.224882	2273.738770	577.923157
422.664368	-8.742728	2389.100830	649.191162
423.106628	-95.679382	2717.556641	673.748840
423.548798	-50.952923	2719.950195	740.009583
423.990967	-70.827133	2904.043945	740.009583
424.433044	-105.623291	3059.172363	916.392578
424.875092	35.917530	3352.054688	838.055542
425.317078	-55.920906	3636.976074	928.624756
425.759064	-50.952923	3812.288330	960.419006
426.200989	55.755642	4072.352539	1014.191650
426.642853	-70.827133	4336.505859	1158.203003
427.084686	-16.189367	4583.577637	1175.270264
427.526459	38.397568	4858.250488	1326.266357
427.968201	-16.189367	5071.431641	1321.400146
428.409912	-60.889179	5382.305664	1394.359131
428.851563	-8.742728	5706.336426	1506.094849
429.293121	-43.501873	6178.006348	1622.518677
429.734711	-11.224882	6365.706055	1666.133423
430.176239	-95.679382	6728.715332	1680.666382
430.617706	30.956865	6904.063965	1748.452515
431.059113	-43.501873	7290.823242	2033.510132
431.500488	23.515226	7779.520996	2040.744873
431.941833	-55.920906	8291.502930	2122.694092
432.383087	1.184703	8441.982422	2344.051514
432.824341	8.629148	9142.027344	2356.065918
433.265533	-90.708138	9619.582031	2531.293457
433.706726	-100.651054	9928.804688	2715.757813
434.147827	-16.189367	10417.267578	2725.330566
434.588867	-36.051769	10897.446289	2978.651855
435.029877	-18.671833	11295.738281	2966.718018
435.470825	48.317108	11978.218750	3224.169434
435.911804	11.110331	12187.334961	3305.080811
436.352661	-18.671833	13050.260742	3450.082031
436.793518	-48.469223	13748.607422	3658.902588
437.234283	-43.501873	14030.882813	3779.731201
437.675049	-98.165230	14862.727539	3869.671143
438.115723	-48.469223	15519.142578	4108.353516
438.556396	-70.827133	16067.135742	4457.164551
438.997040	-145.415955	16953.673828	4506.568848
439.437561	-3.778872	17546.339844	4666.397461
439.878113	-88.222603	18318.041016	4847.107910
440.318573	-23.637081	19000.125000	4978.355469
440.759033	-38.535076	19815.951172	5294.148438
441.199341	-58.404926	20917.410156	5527.524414
441.639709	-1.297032	21489.755859	5457.559570
442.079956	-45.985493	22629.908203	5944.138672
442.520264	-3.778872	23722.367188	6359.333984
442.960510	3.666199	24561.285156	6352.387207
443.400604	-26.119728	25339.865234	6604.551270
443.840759	23.515226	26321.585938	6959.959961
444.280762	-65.858009	27120.697266	7006.043457
444.720825	-26.119728	28261.013672	7307.484375
445.160767	3.666199	29242.246094	7401.684082
445.600739	-13.707139	29778.650391	7452.200684
446.040558	8.629148	30782.419922	7663.244629
446.480438	-31.085606	31289.712891	7731.988770
446.920258	-93.193634	32154.759766	8132.287598
447.359955	-58.404926	32819.144531	8095.738281
447.799713	-28.602615	34172.921875	8533.665039
448.239319	-1.297032	33394.222656	8050.039063
448.678955	3.666199	34438.976563	8547.328125
449.118500	-95.679382	35336.394531	8824.831055
449.558014	23.515226	34751.492188	8408.363281
449.997498	-65.858009	35338.609375	8563.264648
450.436951	-55.920906	34864.507813	8303.475586
450.876343	-18.671833	35068.347656	8444.826172
451.315674	-31.085606	35307.597656	8365.050781
451.754974	-13.707139	34474.441406	8369.610352
452.194183	11.110331	34795.812500	8034.041016
452.633392	21.034428	33436.394531	8054.609863
453.072510	-31.085606	32883.554688	7903.693848
453.511688	-16.189367	32341.457031	7699.912109
453.950684	92.934593	31474.339844	7346.551270
454.389740	-75.796677	30655.574219	7181.011230
454.828735	28.476376	29863.230469	7026.775879
455.267639	-73.311920	28630.292969	6736.214844
455.706543	-88.222603	27569.521484	6556.008789
456.145325	60.714241	26878.632813	6451.925293
456.584137	-23.637081	25802.779297	6127.554199
457.022858	-31.085606	24521.509766	6046.327637
457.461578	8.629148	23669.439453	5651.029785
457.900208	-58.404926	22759.710938	5637.054199
458.338867	-3.778872	21608.253906	5387.554199
458.777405	-23.637081	20641.320313	5029.876465
459.215912	-28.602615	20019.468750	4675.791992
459.654388	-3.778872	19323.761719	4727.448242
460.092773	50.796768	18556.316406	4591.211914
460.531189	-45.985493	17902.699219	4245.181641
460.969513	-26.119728	17668.775391	4466.576660
461.407806	-38.535076	16754.580078	4110.713867
461.846008	-60.889179	16588.263672	4068.216309
462.284241	43.357613	15720.883789	3846.009766
462.722351	-45.985493	15334.853516	3888.595703
463.160461	-58.404926	15269.014648	3718.149414
463.598541	8.629148	14933.040039	3850.742432
464.036530	25.995920	14827.565430	3720.519043
464.474518	-1.297032	14286.424805	3639.935791
464.912384	1.184703	14304.039063	3670.754395
465.350281	-23.637081	13836.854492	3573.526855
465.788086	-53.436863	13311.295898	3518.944336
466.225891	-90.708138	13220.633789	3480.957275
466.663605	-1.297032	13211.786133	3338.378174
467.101318	-1.297032	12680.270508	3276.531494
467.539001	-75.796677	12556.046875	3205.122314
467.976563	-60.889179	12607.077148	3393.057129
468.414124	45.837345	12200.675781	3197.978760
468.851593	-36.051769	11944.826172	3228.930908
469.289063	21.034428	11842.383789	3102.679688
469.726440	-50.952923	11701.986328	3121.746582
470.163849	48.317108	11159.355469	3019.217041
470.601135	-65.858009	11331.491211	3043.070557
471.038422	-8.742728	10807.805664	2976.265381
471.475677	-113.082314	10513.872070	2837.735596
471.912811	-75.796677	10495.904297	2947.620361
472.350006	-58.404926	10556.538086	2938.070068
472.787048	-3.778872	10194.619141	2983.425049
473.224121	-70.827133	9890.468750	2715.757813
473.661072	-88.222603	9872.425781	2581.638672
474.098053	48.317108	9836.332031	2708.577881
474.534943	-23.637081	9520.129883	2663.091064
474.971802	-11.224882	9234.949219	2732.509033
475.408630	-36.051769	9284.784180	2651.117432
475.845367	-45.985493	9350.449219	2631.955811
476.282104	-41.018353	8990.046875	2665.485596
476.718750	-31.085606	9026.355469	2562.462402
477.155426	25.995920	8758.353516	2636.746582
477.591949	-38.535076	8844.715820	2600.810059
478.028503	-41.018353	8749.258789	2516.903564
478.464966	53.276192	8846.989258	2576.844971
478.901428	-8.742728	8619.604492	2634.351563
479.337860	-93.193634	8819.721680	2701.397461
479.774170	18.553661	8482.992188	2607.998535
480.210510	53.276192	8512.603516	2624.769287
480.646698	11.110331	8521.712891	2722.937744
481.082947	30.956865	8671.936523	2744.473145
481.519073	3.666199	8441.982422	2787.528564
481.955200	-21.154404	8587.741211	2713.364746
482.391266	11.110331	8651.460938	2768.395264
482.827301	-70.827133	8585.464844	2892.693848
483.263306	-83.251991	8681.035156	2873.581543
483.699188	28.476376	8735.617188	2766.002930
484.135101	-70.827133	8594.569336	2892.693848
484.570923	-11.224882	8758.353516	2701.397461
485.006744	-8.742728	8926.483398	2976.265381
485.442413	-3.778872	9162.430664	2880.749023
485.878174	-85.737175	8906.046875	2969.104980
486.313782	-26.119728	9164.698242	3023.988281
486.749390	33.437248	9155.629883	3004.901855
487.184998	-3.778872	9132.959961	3081.224609
487.620453	-8.742728	9357.240234	3009.673828
488.055939	-31.085606	9495.256836	3128.895752
488.491333	-43.501873	9531.434570	3181.307861
488.926727	-43.501873	9858.891602	3385.927002
489.362030	-103.137115	9635.398438	3267.012939
489.797302	-58.404926	9931.058594	3409.692627
490.232513	-3.778872	10043.749023	3381.172852
490.667755	16.072655	9937.823242	3573.526855
491.102905	-63.373543	10376.810547	3492.829834
491.537964	-16.189367	10450.973633	3642.307373
491.973022	-90.708138	10798.837891	3758.418945
492.407990	45.837345	10789.872070	3786.834961
492.842957	11.110331	11230.915039	3758.418945
493.277832	-73.311920	11545.852539	3931.164795
493.712738	-73.311920	11717.590820	4054.046387
494.147491	-13.707139	11955.958008	4212.169922
494.582275	13.591545	12027.182617	4143.756348
495.017029	16.072655	12666.963867	4261.683594
495.451660	-13.707139	12915.192383	4374.774414
495.886292	-90.708138	13415.178711	4612.362793
496.320831	-18.671833	13689.023438	4732.143555
496.755402	-13.707139	14235.776367	4865.866699
497.189850	-21.154404	14651.694336	4896.343262
497.624298	-100.651054	14812.180664	5114.134277
498.058655	-75.796677	15332.659180	5247.417969
498.493042	6.147725	15657.302734	5382.885742
498.927368	-65.858009	16113.136719	5436.562500
499.361572	-65.858009	16557.621094	5651.029785
499.795807	-16.189367	16920.861328	5958.077637
500.229919	-6.260815	17487.304688	6136.833496
500.664063	-33.568565	17876.464844	6204.089355
501.098083	-43.501873	18477.619141	6625.349121
501.532104	-45.985493	19210.042969	6609.172852
501.966064	-11.224882	19557.794922	6805.456055
502.399994	3.666199	20074.187500	6973.786621
502.833893	-13.707139	20941.519531	7187.913086
503.267700	-75.796677	21219.953125	7539.413086
503.701477	13.591545	22258.326172	7610.515625
504.135193	-85.737175	22572.720703	7683.871582
504.568909	-13.707139	23039.244141	7967.739258
505.002502	-43.501873	23784.125000	8114.014160
505.436127	1.184703	24430.921875	8374.168945
505.869629	6.147725	24804.443359	8570.094727
506.303162	-11.224882	25554.654297	8779.376953
506.736603	-75.796677	25931.324219	9054.144531
507.169983	-68.342453	26982.998047	9375.910156
507.603363	-75.796677	27429.511719	9475.462891
508.036621	18.553661	28025.269531	9789.505859
508.469940	-1.297032	28481.234375	9891.029297
508.903107	-31.085606	29277.855469	10116.383789
509.336304	25.995920	29714.099609	10253.682617
509.769379	-21.154404	30390.734375	10781.459961
510.202484	23.515226	30947.083984	11157.673828
510.635529	1.184703	31369.794922	11177.802734
511.068481	-105.623291	32221.443359	11381.194336
511.501434	-31.085606	32619.218750	11553.101563
511.934265	-23.637081	33165.574219	12025.509766
512.367126	-33.568565	34042.078125	12219.011719
512.799927	8.629148	33729.308594	12587.660156
513.232605	-65.858009	34578.625000	12496.674805
513.665344	-48.469223	34946.492188	12729.600586
514.097961	-18.671833	35980.875000	13311.843750
514.530579	11.110331	36450.363281	13325.107422
514.963135	-85.737175	37210.234375	13877.102539
515.395691	-85.737175	37434.128906	13855.046875
515.828064	13.591545	38784.757813	14304.584961
516.260498	-11.224882	38675.656250	14496.068359
516.692871	-53.436863	39186.066406	14902.825195
517.125183	-105.623291	39695.785156	15203.708984
517.557373	-70.827133	39783.156250	15524.074219
517.989624	-70.827133	40362.742188	15640.305664
518.421753	-83.251991	41129.343750	16015.100586
518.853943	-95.679382	41591.796875	16041.390625
519.286072	1.184703	42350.265625	16407.121094
519.718018	-60.889179	42789.042969	16943.281250
520.150024	-70.827133	43182.152344	17083.277344
520.581909	3.666199	43055.457031	17271.367188
521.013855	-115.568916	43644.886719	17476.917969
521.445679	-80.766777	44483.734375	17525.019531
521.877502	-26.119728	44990.953125	17997.242188
522.309204	-48.469223	44367.652344	18159.007813
522.740906	-26.119728	45210.187500	18443.185547
523.172546	-13.707139	45555.433594	18510.953125
523.604187	-48.469223	45798.515625	18915.398438
524.035767	-16.189367	46162.847656	19160.291016
524.467224	-80.766777	46521.265625	19287.126953
524.898682	-50.952923	46539.300781	19984.996094
525.330078	-18.671833	46580.562500	19877.763672
525.761475	8.629148	47012.175781	20238.910156
526.192749	-6.260815	47001.699219	20203.882813
526.624023	11.110331	47104.023438	20725.117188
527.055237	-65.858009	47463.824219	20823.720703
527.486389	11.110331	47925.828125	21461.777344
527.917542	48.317108	48045.320313	21503.464844
528.348572	-70.827133	48288.730469	21569.296875
528.779663	-21.154404	48894.976563	22173.169922
529.210571	-60.889179	48982.390625	22494.097656
529.641541	-45.985493	48763.023438	22727.251953
530.072388	21.034428	48979.570313	23046.396484
530.503235	-26.119728	48878.089844	23101.447266
530.934082	-8.742728	48931.601563	23669.986328
531.364746	-6.260815	49326.613281	23689.833984
531.795532	-8.742728	49609.035156	23672.193359
532.226135	-55.920906	50321.117188	24305.564453
532.656738	-38.535076	50012.460938	24321.025391
533.087280	33.437248	50009.511719	24747.505859
533.517822	-13.707139	50092.203125	24844.794922
533.948242	-50.952923	49766.085938	24962.011719
534.378662	-16.189367	50443.917969	25247.445313
534.809082	-18.671833	50321.117188	25643.808594
535.239319	-41.018353	50362.972656	25750.150391
535.669617	-33.568565	50840.710938	26393.125000
536.099792	8.629148	50947.882813	26590.605469
536.529968	13.591545	50579.457031	27050.173828
536.960083	-90.708138	50009.511719	26974.667969
537.390137	-75.796677	50413.906250	27278.970703
537.820190	-41.018353	50255.480469	27716.775391
538.250183	-23.637081	51070.984375	27894.630859
538.680115	-23.637081	51033.988281	27890.185547
539.109985	3.666199	50981.671875	28361.660156
539.539795	-33.568565	51397.304688	28630.845703
539.969543	-18.671833	51015.507813	28435.070313
540.399292	73.108673	51006.277344	29233.896484
540.828979	18.553661	51607.996094	29260.605469
541.258606	-6.260815	50960.164063	29427.529297
541.688171	25.995920	51747.429688	29763.621094
542.117737	-53.436863	50895.765625	30242.167969
542.547302	-73.311920	50972.457031	30317.839844
542.976685	-45.985493	51595.363281	30734.015625
543.406128	-33.568565	51291.132813	31147.882813
543.835388	-75.796677	50993.968750	31546.066406
544.264771	-38.535076	51157.554688	31445.974609
544.693970	11.110331	50917.214844	31392.591797
545.123230	-28.602615	51529.156250	32275.339844
545.552307	16.072655	51958.195313	32404.240234
545.981506	-48.469223	51475.695313	32479.792969
546.410583	-48.469223	51197.851563	33126.160156
546.839539	-18.671833	51906.921875	33436.945313
547.268555	-36.051769	51316.070313	33052.882813
547.697449	-23.637081	51431.761719	33461.359375
548.126282	-33.568565	51347.285156	33820.824219
548.555054	-78.281677	51012.433594	34042.632813
548.983887	21.034428	51080.246094	34335.332031
549.412598	-13.707139	51652.265625	34986.925781
549.841309	3.666199	51741.074219	35241.695313
550.269958	35.917530	51696.628906	35567.292969
550.698486	-100.651054	52307.378906	36165.230469
551.127075	1.184703	51409.835938	36225.019531
551.555481	8.629148	51779.234375	36605.949219
551.983948	-63.373543	51744.250000	36687.902344
552.412292	-55.920906	52586.046875	37303.878906
552.840698	-6.260815	51750.605469	37416.941406
553.268860	30.956865	51922.929688	37871.679688
553.697205	-98.165230	52003.160156	37880.558594
554.125366	-55.920906	51942.164063	38300.320313
554.553467	-53.436863	52048.210938	37964.910156
554.981628	-55.920906	51671.273438	39389.855469
555.409607	-1.297032	52157.996094	39667.230469
555.837646	-70.827133	52164.472656	40014.753906
556.265564	-3.778872	52718.386719	40241.746094
556.693481	-63.373543	53242.074219	40665.566406
557.121338	-43.501873	52998.859375	40993.742188
557.549133	-11.224882	52898.285156	41200.351563
557.976929	-11.224882	53164.089844	41416.617188
558.404602	-11.224882	53684.507813	41587.792969
558.832275	-31.085606	52698.488281	41473.628906
559.259888	-50.952923	53123.511719	42267.648438
559.687439	1.184703	53792.136719	42457.312500
560.114929	30.956865	53371.503906	42568.636719
560.542419	13.591545	53296.476563	43126.390625
560.969788	-60.889179	53642.980469	43671.585938
561.397156	-31.085606	53481.070313	44189.964844
561.824524	-48.469223	53539.503906	44288.648438
562.251770	-95.679382	53279.464844	44259.738281
562.679016	-85.737175	53532.625000	44498.871094
563.106140	-83.251991	53854.867188	44705.386719
563.533264	-3.778872	53197.960938	44991.558594
563.960327	-6.260815	53316.917969	45008.753906
564.387329	21.034428	52848.171875	44734.632813
564.814331	-18.671833	52691.859375	45366.847656
565.241272	13.591545	52148.285156	45233.050781
565.668213	-33.568565	52385.714844	45698.675781
566.094971	-1.297032	52388.984375	45478.742188
566.521790	68.151237	51649.105469	45543.570313
566.948425	-33.568565	52061.097656	45912.539063
567.375183	-60.889179	52464.324219	45854.527344
567.801819	-63.373543	52151.523438	45889.828125
568.228394	-53.436863	51384.792969	45844.453125
568.654846	-55.920906	51453.718750	45904.972656
569.081421	1.184703	51213.375000	45389.199219
569.507874	40.877644	50646.007813	45513.636719
569.934265	-130.490494	50267.402344	45616.031250
570.360596	16.072655	50467.957031	46069.457031
570.786865	-11.224882	49432.855469	45097.316406
571.213074	3.666199	49935.929688	45309.792969
571.639282	45.837345	49742.750000	45309.792969
572.065430	-36.051769	49818.664063	45364.359375
572.491516	-26.119728	48990.867188	45443.890625
572.917603	-26.119728	49061.617188	45369.328125
573.343567	-31.085606	49129.730469	45811.718750
573.769531	-48.469223	48296.972656	45218.214844
574.195435	-11.224882	48743.429688	45463.800781
574.621277	-70.827133	48015.394531	45558.546875
575.047119	-38.535076	48426.492188	45516.128906
575.472839	3.666199	48170.839844	45349.472656
575.898560	-11.224882	47850.066406	45653.570313
576.324158	-43.501873	48390.601563	45423.988281
576.749817	6.147725	47809.570313	45255.312500
577.175293	-31.085606	47554.519531	45053.003906
577.600830	-36.051769	47362.812500	44822.519531
578.026306	16.072655	46881.488281	44952.292969
578.451721	-13.707139	46894.527344	44822.519531
578.877136	8.629148	46547.031250	44849.414063
579.302429	-43.501873	45937.171875	44751.707031
579.727661	13.591545	46531.570313	45018.585938
580.152832	-21.154404	46336.402344	44898.363281
580.578064	-16.189367	46400.460938	44881.230469
581.003113	-8.742728	46035.863281	44878.777344
581.428223	-88.222603	45620.410156	44693.207031
581.853271	-8.742728	45710.593750	44800.527344
582.278198	-33.568565	45099.167969	44358.597656
582.703125	-70.827133	44875.722656	44564.347656
583.127930	-50.952923	45077.003906	44644.531250
583.552795	-95.679382	45032.722656	44433.507813
583.977539	16.072655	45252.222656	44332.046875
584.402283	-70.827133	45091.777344	44671.292969
584.826965	-115.568916	44656.089844	44158.726563
585.251587	-11.224882	45059.777344	44125.109375
585.676208	-142.928192	44765.742188	43830.957031
586.100647	-60.889179	44561.316406	43986.144531
586.525208	-93.193634	44755.976563	43515.152344
586.949524	-6.260815	44102.917969	43790.464844
587.373962	-48.469223	44052.574219	43690.582031
587.798218	38.397568	44105.320313	44038.800781
588.222534	18.553661	43995.117188	43441.867188
588.646729	-93.193634	44076.542969	43688.210938
589.070984	-13.707139	43789.875000	43399.363281
589.495117	-48.469223	43325.675781	43340.398438
589.919128	-73.311920	43578.492188	43196.839844
590.343201	-11.224882	43137.542969	42740.695313
590.767151	28.476376	42961.820313	42908.636719
591.191101	16.072655	42758.746094	42526.863281
591.614990	21.034428	42805.359375	42320.781250
592.038818	-8.742728	41781.730469	42455.000000
592.462524	-53.436863	42195.531250	41981.968750
592.886292	1.184703	42167.855469	41883.203125
593.310059	38.397568	41685.554688	41414.335938
593.733582	-6.260815	41809.238281	41018.691406
594.157227	-55.920906	41147.515625	41188.984375
594.580750	8.629148	40999.980469	41254.929688
595.004272	25.995920	40491.203125	41166.261719
595.427673	-33.568565	40660.484375	40975.605469
595.851074	-36.051769	40907.058594	40814.792969
596.274353	-18.671833	40506.992188	40785.382813
596.697632	-26.119728	40762.199219	40318.265625
597.120911	16.072655	40171.468750	40482.742188
597.544067	-28.602615	40157.980469	39996.796875
597.967224	-16.189367	40020.933594	39667.230469
598.390320	-33.568565	39297.699219	39562.031250
598.813354	-8.742728	39666.675781	39394.324219
599.236328	16.072655	39612.945313	39577.695313
599.659241	-55.920906	39378.125000	39548.609375
600.082153	-58.404926	38840.445313	39229.031250
600.505005	-43.501873	38531.015625	38934.589844
600.927795	-58.404926	38233.101563	38464.839844
601.350525	-75.796677	38424.257813	38798.675781
601.773254	38.397568	37864.468750	38413.691406
602.195862	-8.742728	37618.195313	37982.671875
602.618408	-43.501873	37367.617188	38004.875000
603.040955	-60.889179	37487.343750	38169.222656
603.463440	-83.251991	36784.816406	37377.035156
603.885925	8.629148	36831.335938	37099.980469
604.308350	28.476376	37094.996094	36780.937500
604.730652	-45.985493	36488.011719	36586.011719
605.152893	-110.595825	36716.144531	36176.300781
605.575195	-8.742728	36087.171875	36058.933594
605.997375	18.553661	36392.785156	35768.828125
606.419495	-26.119728	36115.960938	35806.476563
606.841553	58.234997	35646.472656	35257.199219
607.263672	-23.637081	35648.687500	35613.804688
607.685608	-75.796677	35723.984375	35321.433594
608.107605	-38.535076	35340.824219	35476.484375
608.529480	-36.051769	35336.394531	35299.289063
608.951294	-13.707139	35048.410156	34523.761719
609.373108	-68.342453	35088.289063	34479.429688
609.794800	-13.707139	34399.070313	34366.371094
610.216553	-31.085606	34268.265625	33951.695313
610.638123	-103.137115	33991.070313	34361.937500
611.059753	-36.051769	34093.085938	34102.507813
611.481262	-21.154404	34166.265625	33676.613281
611.902832	30.956865	33871.292969	33337.062500
612.324219	-80.766777	34022.117188	33514.621094
612.745605	-78.281677	33582.867188	33428.066406
613.166931	33.437248	33678.281250	33170.566406
613.588196	85.500671	33318.753906	32921.867188
614.009460	-21.154404	33096.746094	32395.351563
614.430664	-70.827133	33127.828125	32513.123047
614.851807	33.437248	32683.646484	31657.269531
615.272827	-21.154404	32881.335938	32068.617188
615.693909	8.629148	32032.496094	31365.896484
616.114929	8.629148	31959.126953	31041.087891
616.535889	-43.501873	31240.765625	30883.107422
616.956787	-18.671833	31325.304688	30446.929688
617.377563	-43.501873	31116.183594	30524.822266
617.798340	-16.189367	31276.361328	30068.556641
618.219055	-16.189367	30804.671875	29681.265625
618.639832	13.591545	30702.306641	29518.783203
619.060364	-16.189367	29972.292969	28817.748047
619.481018	-45.985493	29878.812500	28472.888672
619.901611	-48.469223	29306.789063	28045.835938
620.322083	-11.224882	29329.044922	28359.435547
620.742493	-45.985493	28630.292969	27779.021484
621.162842	-125.516251	28214.306641	26943.578125
621.583191	-33.568565	28481.234375	26936.916016
622.003418	-21.154404	27627.308594	26628.333984
622.423706	-38.535076	27413.955078	25973.992188
622.843872	-21.154404	27114.033203	25650.453125
623.264038	-31.085606	26931.921875	25262.937500
623.684143	-31.085606	26716.566406	25096.960938
624.104126	-55.920906	26215.121094	24762.982422
624.524170	-1.297032	25674.271484	24667.923828
624.944031	-50.952923	25869.265625	24164.242188
625.364014	-11.224882	25541.367188	23914.833984
625.783752	-41.018353	24884.050781	23471.572266
626.203552	-18.671833	24205.644531	22940.722656
626.623230	8.629148	24022.417969	22428.134766
627.042969	-78.281677	23865.746094	22333.603516
627.462585	1.184703	23654.003906	22098.464844
627.882141	-55.920906	23415.921875	21720.740234
628.301697	-103.137115	22825.724609	21455.197266
628.721130	-13.707139	22517.742188	21150.326172
629.140625	-65.858009	22306.681641	21053.857422
629.559998	-1.297032	21972.707031	21007.824219
629.979309	6.147725	21988.082031	20488.539063
630.398560	-3.778872	21722.388672	20479.777344
630.817810	-83.251991	22014.439453	19960.923828
631.237000	3.666199	21329.611328	19834.001953
631.656067	-28.602615	20728.955078	19398.664063
632.075195	-36.051769	20726.763672	19162.478516
632.494202	-53.436863	20656.656250	19204.025391
632.913208	-13.707139	20229.609375	18948.193359
633.332092	-55.920906	19824.705078	18602.767578
633.750977	-58.404926	19815.951172	18600.582031
634.169739	-95.679382	19551.232422	18285.794922
634.588562	-18.671833	19196.921875	17783.005859
635.007263	-28.602615	19151.000000	17739.279297
635.425964	-13.707139	18917.041016	17177.326172
635.844543	45.837345	18497.292969	17048.281250
636.263123	-63.373543	18366.130859	17085.462891
636.681641	-36.051769	18287.437500	16759.501953
637.100037	-63.373543	18049.164063	16470.607422
637.518494	35.917530	17793.390625	16096.157227
637.936829	-36.051769	17679.708984	16304.215820
638.355164	-55.920906	17325.494141	15697.313477
638.773438	-58.404926	17332.054688	15785.000977
639.191650	8.629148	17233.644531	15256.389648
639.609863	-1.297032	17036.798828	15280.533203
640.027893	-73.311920	16610.148438	15208.098633
640.445984	-90.708138	16588.263672	15067.575195
640.863953	-41.018353	16708.626953	14918.206055
641.281921	-88.222603	16551.054688	14639.045898
641.699829	1.184703	16119.709961	14559.868164
642.117676	-1.297032	16132.851563	14482.866211
642.535461	43.357613	15804.184570	14172.449219
642.953247	-3.778872	15709.923828	13914.589844
643.370972	11.110331	15598.096680	13702.813477
643.788635	30.956865	15389.710938	13671.914063
644.206177	-58.404926	15029.695313	13453.290039
644.623718	33.437248	14915.462891	13086.224609
645.041260	-11.224882	14963.795898	13064.091797
645.458618	-13.707139	14550.523438	12882.514648
645.876099	21.034428	14550.523438	12962.250977
646.293396	-60.889179	14204.942383	12658.643555
646.710693	-1.297032	14108.013672	12465.596680
647.127991	-95.679382	13823.619141	12243.461914
647.545166	-16.189367	13872.144531	11907.527344
647.962341	-6.260815	13505.759766	11936.472656
648.379333	48.317108	13468.207031	11751.580078
648.796448	-48.469223	13501.342773	11925.340820
649.213379	-1.297032	13309.083984	11657.944336
649.630310	-11.224882	12939.556641	11352.153320
650.047180	-11.224882	12737.917969	11036.843750
650.463989	6.147725	12658.092773	11175.566406
650.880859	-50.952923	12138.415039	10833.017578
651.297546	-50.952923	12285.137695	10776.975586
651.714233	-78.281677	11991.574219	10575.056641
652.130859	18.553661	11960.410156	10480.737305
652.547485	50.796768	11621.706055	10291.922852
652.963928	13.591545	11837.929688	10055.572266
653.380432	-45.985493	11895.839844	10053.319336
653.796814	-55.920906	11443.171875	9990.228516
654.213196	-31.085606	11461.034180	9920.344727
654.629578	-50.952923	10991.514648	9715.011719
655.045837	-48.469223	11143.697266	9791.762695
655.462036	-6.260815	10843.667969	9493.555664
655.878174	-33.568565	10827.978516	9203.789063
656.294312	-41.018353	10671.004883	9357.801758
656.710327	-88.222603	10635.103516	9042.800781
657.126404	-78.281677	10311.606445	8990.610352
657.542358	8.629148	10385.801758	8865.726563
657.958252	-60.889179	10388.049805	8886.169922
658.374084	-41.018353	10003.190430	8483.558594
658.789917	-45.985493	10091.052734	8403.804688
659.205688	-41.018353	10041.495117	8417.480469
659.621338	-95.679382	9748.317383	8260.128906
660.037048	-108.109573	9612.804688	8150.558105
660.452637	1.184703	9379.875000	8031.754395
660.868164	-48.469223	8928.753906	7988.319336
661.283691	-11.224882	8915.130859	7665.536133
661.699158	-63.373543	8887.876953	7594.463379
662.114502	-45.985493	9132.959961	7823.592773
662.529846	-13.707139	8583.188477	7406.276855
662.945129	-43.501873	8676.486328	7293.693848
663.360413	-60.889179	8637.809570	7275.302734
663.775635	-31.085606	8717.425781	7063.625000
664.190674	-70.827133	8469.323242	7100.464355
664.605835	25.995920	8334.840820	7035.989258
665.020813	23.515226	8284.659180	7038.292480
665.435791	-45.985493	7788.680176	6798.534180
665.850769	-36.051769	7719.964844	6470.435547
666.265625	-100.651054	7800.129395	6572.191895
666.680420	38.397568	7747.455566	6454.239258
667.095215	-41.018353	7662.675293	6322.278320
667.509949	-23.637081	7701.634766	6359.333984
667.924622	-58.404926	7430.966797	5951.108398
668.339233	-45.985493	7313.808105	6064.898438
668.753784	-41.018353	7185.041016	5904.633301
669.168335	-26.119728	7102.194824	5776.734375
669.582825	-16.189367	7145.925781	5839.538086
669.997192	-36.051769	7127.514160	5804.650879
670.411560	-41.018353	6744.876465	5525.193359
670.825867	-1.297032	6620.153809	5571.814453
671.240173	-3.778872	6772.575195	5378.216797
671.654358	-1.297032	6652.500977	5259.102051
672.068481	-6.260815	6384.228516	5284.804199
672.482605	-13.707139	6525.374512	5338.525391
672.896667	-21.154404	6354.127930	5371.213379
673.310669	3.666199	6400.434082	5153.901367
673.724609	-18.671833	6194.238770	5109.454590
674.138489	1.184703	5938.913574	4776.735352
674.552307	-11.224882	5901.731445	4795.505859
674.966064	-48.469223	6027.177734	4795.505859
675.379822	-73.311920	5955.177734	4736.838379
675.793579	-78.281677	5636.475586	4652.304199
676.207153	-60.889179	5662.095703	4577.109375
676.620789	-128.003250	5445.315918	4428.923340
677.034241	3.666199	5519.950684	4454.811523
677.447754	-63.373543	5452.314941	4278.183105
677.861206	-26.119728	5319.262207	4256.968750
678.274597	-13.707139	5354.290527	4287.610352
678.687866	38.397568	5008.221191	4181.506836
679.101135	-23.637081	5106.534180	4150.835938
679.514404	-48.469223	5078.453125	4122.515625
679.927551	-23.637081	4980.116699	4025.701660
680.340698	30.956865	4804.307129	3831.811035
680.753723	-48.469223	4710.432129	3855.475098
681.166748	-8.742728	4618.828613	3767.891602
681.579712	-3.778872	4665.813965	3590.133057
681.992615	-33.568565	4564.771484	3518.944336
682.405457	-8.742728	4569.473633	3573.526855
682.818298	-6.260815	4508.336914	3414.445313
683.231018	43.357613	4322.370117	3476.207764
683.643738	1.184703	4364.770020	3383.549805
684.056335	-113.082314	4152.608887	3347.889893
684.468994	40.877644	4213.941895	3345.511719
684.881531	8.629148	4157.328125	3309.838379
685.293945	16.072655	4150.249512	3262.253418
685.706482	-13.707139	4060.545166	3023.988281
686.118774	-11.224882	3999.125488	3054.995361
686.531128	-33.568565	4072.352539	3081.224609
686.943481	-41.018353	3892.739014	3047.840820
687.355713	-105.623291	3835.956543	3109.830322
687.767883	18.553661	3802.819092	2890.305176
688.179932	38.397568	3655.943115	2954.782471
688.592041	-90.708138	3575.310059	2978.651855
689.004089	3.666199	3700.975586	2746.865479
689.416016	-80.766777	3584.799805	2708.577881
689.827881	-18.671833	3466.118164	2643.932617
690.239868	-80.766777	3461.368408	2691.822021
690.651611	-28.602615	3316.383545	2641.537109
691.063354	6.147725	3382.959229	2454.523193
691.475098	-95.679382	3321.139893	2526.497070
691.886719	-16.189367	3328.275146	2689.428467
692.298340	-28.602615	3178.334717	2444.922119
692.709900	-48.469223	3156.895996	2471.322266
693.121460	-50.952923	2999.537354	2298.382080
693.532837	-31.085606	2939.864990	2399.304443
693.944214	-33.568565	3056.787842	2247.877930
694.355652	6.147725	3021.010254	2267.120850
694.766846	8.629148	2966.125244	2305.594727
695.178101	-53.436863	2789.325928	2228.630371
695.589294	16.072655	2801.282227	2197.344482
696.000366	18.553661	2865.820068	2185.308594
696.411438	-33.568565	2664.891113	2129.920898
696.822510	-26.119728	2645.732178	2190.123291
697.233459	-43.501873	2648.127686	2069.677002
697.644409	21.034428	2612.195313	2021.451050
698.055298	-36.051769	2595.422119	1982.850586
698.466064	-36.051769	2571.455322	1970.784424
698.876831	-33.568565	2468.326660	1871.775635
699.287537	11.110331	2516.307861	1850.026001
699.698181	-41.018353	2420.319336	1784.743408
700.108826	-55.920906	2521.104492	1900.765869
700.519348	-3.778872	2497.118408	1787.162109
700.929810	-48.469223	2268.928711	1813.764282
701.340271	3.666199	2244.874756	1738.772461
701.750732	-6.260815	2307.401611	1721.829224
702.161011	-63.373543	2208.781006	1695.197144
702.571350	-11.224882	2126.913818	1637.059692
702.981567	-53.436863	2199.153809	1574.029663
703.391724	-41.018353	2122.095703	1654.020630
703.801880	-68.342453	2194.339600	1697.618286
704.211914	13.591545	2136.549316	1658.866089
704.621948	-60.889179	1950.875366	1503.667603
705.031921	-48.469223	2006.379028	1544.922119
705.441895	-75.796677	2001.553955	1440.530396
705.851746	-21.154404	1943.632935	1396.789673
706.261536	-58.404926	2049.791016	1469.677002
706.671265	-73.311920	1895.334961	1379.772949
707.081055	38.397568	1830.088013	1360.320435
707.490662	-38.535076	1938.804565	1333.564819
707.900330	-75.796677	1834.922974	1389.497314
708.309814	-75.796677	1822.835327	1335.997437
708.719299	-11.224882	1769.628296	1340.862793
709.128784	-18.671833	1796.235962	1306.800049
709.538147	-63.373543	1866.342773	1231.320435
709.947510	-41.018353	1675.221069	1258.112305
710.356750	-28.602615	1713.965332	1150.887207
710.766052	-41.018353	1672.798828	1238.628296
711.175171	1.184703	1634.034424	1214.266113
711.584290	-21.154404	1607.373047	1185.020996
711.993347	-6.260815	1481.215088	1180.145630
712.402405	-31.085606	1510.346436	1070.365723
712.811401	70.629936	1510.346436	1060.599487
713.220276	-48.469223	1432.638550	1053.273926
713.629150	-55.920906	1401.047485	1065.482666
714.037964	-1.297032	1534.614380	982.421692
714.446777	28.476376	1483.643188	1072.807129
714.855408	-78.281677	1442.356567	1006.861511
715.264099	-41.018353	1325.662109	1045.947510
715.672668	-6.260815	1447.214722	1028.849976
716.081177	-3.778872	1374.306396	982.421692
716.489746	-60.889179	1415.629517	975.088318
716.898132	-6.260815	1313.495972	1026.407349
717.306519	-68.342453	1208.787476	1001.974182
717.714844	-38.535076	1371.874878	869.890564
718.123108	-43.501873	1245.330444	855.199341
718.531372	-60.889179	1255.072266	884.578735
718.939514	-93.193634	1269.682495	923.732300
719.347595	-58.404926	1294.026367	889.474243
719.755676	-33.568565	1157.597412	781.696106
720.163696	-18.671833	1189.290771	918.839233
720.571716	-8.742728	1147.842773	899.263855
720.979614	-58.404926	1096.609863	798.853821
721.387451	-36.051769	1042.898682	754.725342
721.795227	-33.568565	1118.571289	901.711060
722.202942	16.072655	1094.169312	798.853821
722.610718	-85.737175	918.231628	769.438049
723.018311	-16.189367	1055.109375	722.837097
723.425903	-70.827133	1062.434570	742.462219
723.833374	-26.119728	1008.697998	808.656494
724.240906	-16.189367	1040.456543	580.382019
724.648376	-23.637081	962.256653	693.388184
725.055725	-48.469223	937.801758	666.382385
725.463013	-28.602615	935.355774	678.659058
725.870300	40.877644	1057.551270	634.452393
726.277466	-11.224882	896.208679	582.840698
726.684631	21.034428	844.795044	639.365784
727.091797	-53.436863	888.866333	565.627930
727.498779	-16.189367	859.488464	649.191162
727.905823	-48.469223	874.178833	668.837952
728.312805	-16.189367	805.597351	563.168518
728.719666	33.437248	854.591187	563.168518
729.126526	13.591545	864.385681	558.249512
729.533264	-11.224882	810.498108	555.790100
729.940063	-23.637081	736.947388	543.490479
730.346680	16.072655	852.142273	523.806519
730.753357	-18.671833	830.098511	543.490479
731.159851	-1.297032	719.774109	553.330383
731.566406	43.357613	778.635742	565.627930
731.972900	-31.085606	751.663879	541.030273
732.379272	-11.224882	808.047668	504.116882
732.785645	-23.637081	682.959595	548.410583
733.191895	-65.858009	805.597351	543.490479
733.598206	-50.952923	719.774109	587.757935
734.004333	-21.154404	783.538696	553.330383
734.410522	-58.404926	707.504639	442.547485
734.816528	-31.085606	596.980530	496.731506
735.222656	-50.952923	756.568481	496.731506
735.628662	-53.436863	670.683655	501.655182
736.034546	1.184703	653.493530	452.402618
736.440430	-88.222603	678.049377	474.570740
736.846252	-6.260815	655.949280	425.297546
737.252014	16.072655	660.861145	462.256042
737.657715	-88.222603	609.269897	410.508240
738.063354	-60.889179	663.316895	449.938965
738.468933	-55.920906	624.014282	440.083435
738.874512	-41.018353	651.037415	477.033447
739.280029	-13.707139	599.438660	378.452972
739.685486	-16.189367	653.493530	388.317749
740.090881	-33.568565	528.117004	430.226654
740.496216	30.956865	695.233215	435.155365
740.901550	-11.224882	700.142212	412.973389
741.306702	-18.671833	651.037415	420.368347
741.711914	-65.858009	628.928467	403.112457
742.117004	-41.018353	638.755432	405.577637
742.522095	-65.858009	565.017151	375.986481
742.927124	-16.189367	547.799683	368.586670
743.332031	-26.119728	604.354309	324.168640
743.737000	-38.535076	550.259644	361.185760
744.141785	-26.119728	513.351196	400.646912
744.546631	-53.436863	471.496307	341.445984
744.951355	-13.707139	481.347076	408.042999
745.356079	-28.602615	528.117004	343.913818
745.760620	-28.602615	486.271637	331.573883
746.165283	-43.501873	459.181030	269.837402
746.569824	-55.920906	572.394531	284.659912
746.974243	-6.260815	466.570648	220.404465
747.378723	-36.051769	454.254120	269.837402
747.783020	-6.260815	533.038269	316.762756
748.187378	-31.085606	461.644287	311.824860
748.591614	-38.535076	471.496307	188.251587
748.995850	-26.119728	417.291046	245.125946
749.399963	38.397568	446.863373	343.913818
749.804077	-26.119728	456.717590	284.659912
750.208130	-83.251991	449.327148	250.068985
750.612122	-6.260815	432.079041	259.954041
751.016052	28.476376	343.300934	255.011795
751.419922	55.755642	355.638580	198.146561
751.823792	-21.154404	385.239166	220.404465
752.227478	33.437248	419.755920	225.349503
752.631226	-48.469223	370.440582	245.125946
753.034851	-63.373543	427.150085	232.766373
753.438477	6.147725	377.840454	175.880722
753.842102	-48.469223	412.361206	198.146561
754.245544	-16.189367	269.223846	208.039948
754.648987	-43.501873	343.300934	208.039948
755.052368	-16.189367	293.926025	232.766373
755.455750	33.437248	271.694519	215.458908
755.859009	43.357613	261.811462	195.673080
756.262268	11.110331	288.986328	141.228760
756.665405	-55.920906	323.555603	247.597443
757.068542	-120.542297	370.440582	136.276917
757.471680	-43.501873	303.804016	121.418709
757.874634	40.877644	276.635620	168.456985
758.277588	-63.373543	214.844635	153.606781
758.680420	-26.119728	237.096512	151.131348
759.083374	-23.637081	274.165100	235.238510
759.486084	-18.671833	187.637192	178.355164
759.888916	48.317108	264.282440	118.942101
760.291504	-3.778872	182.689133	116.465256
760.694214	-53.436863	212.371948	212.986099
761.096802	28.476376	229.680283	12.346902
761.499268	-36.051769	298.865082	161.032333
761.901733	-45.985493	298.865082	118.942101
762.304199	-36.051769	217.317505	279.719482
762.706543	-63.373543	256.869202	109.034241
763.108826	3.666199	229.680283	161.032333
763.511108	-31.085606	227.207932	217.931732
763.913208	-75.796677	180.214874	156.081985
764.315369	8.629148	207.425751	121.418709
764.717529	25.995920	214.844635	138.752808
765.119568	-13.707139	269.223846	111.511261
765.521545	-85.737175	234.624451	133.800781
765.923462	-31.085606	204.952499	131.324539
766.325317	-95.679382	229.680283	111.511261
766.727112	-63.373543	212.371948	118.942101
767.128845	-8.742728	232.152298	148.655823
767.530518	-38.535076	165.367538	66.907730
767.932251	-11.224882	207.425751	79.300880
768.333862	-26.119728	251.926559	128.848206
768.735413	48.317108	207.425751	64.428741
769.136841	-65.858009	214.844635	54.511883
769.538269	-31.085606	165.367538	49.552902
769.939636	18.553661	187.637192	94.169464
770.341003	-21.154404	98.509460	113.988312
770.742249	-50.952923	140.613892	94.169464
771.143433	-26.119728	167.842255	91.691605
771.544617	-73.311920	162.892578	29.712585
771.945740	28.476376	138.137924	52.032379
772.346802	21.034428	170.317001	141.228760
772.747803	-36.051769	91.076096	109.034241
773.148682	-18.671833	222.262909	19.789942
773.549622	16.072655	180.214874	161.032333
773.950439	3.666199	115.850006	131.324539
774.351196	-38.535076	152.991898	52.032379
774.751892	3.666199	91.076096	104.079628
775.152588	-31.085606	66.291969	79.300880
775.553162	58.234997	128.233215	42.113594
775.953735	33.437248	160.417526	29.712585
776.354309	-88.222603	125.756744	96.647095
776.754639	-3.778872	167.842255	74.343956
777.155090	-53.436863	172.791656	42.113594
777.555420	-28.602615	100.986908	66.907730
777.955750	-6.260815	130.709564	91.691605
778.355896	6.147725	165.367538	49.552902
778.756104	-31.085606	105.941765	71.865273
779.156189	-16.189367	148.041031	-2.541988
779.556274	-70.827133	78.685379	118.942101
779.956299	6.147725	118.326874	27.232048
780.356201	-26.119728	192.584869	56.991283
780.756165	-26.119728	108.418915	109.034241
781.156006	-73.311920	155.467255	64.428741
781.555786	13.591545	100.986908	52.032379
781.955505	-33.568565	96.031769	69.386490
782.355225	-3.778872	143.089600	146.180191
782.754761	-6.260815	31.576902	101.602310
783.154358	-80.766777	130.709564	56.991283
783.553894	-53.436863	96.031769	86.735565
783.953369	-16.189367	110.896088	42.113594
784.352783	-13.707139	133.185699	34.673218
784.752075	-28.602615	31.576902	17.309122
785.151367	-38.535076	113.373169	148.655823
785.550598	-33.568565	58.854752	12.346902
785.949768	16.072655	88.598236	52.032379
786.348877	-41.018353	66.291969	-19.917156
786.747986	-36.051769	83.641945	116.465256
787.147034	16.072655	39.017666	47.073193
787.545959	-60.889179	68.770889	49.552902
787.944885	13.591545	148.041031	-37.297462
788.343750	-38.535076	61.333969	22.270792
788.742493	-98.165230	81.163788	-14.952358
789.141235	-53.436863	51.416599	-17.434637
789.539917	-68.342453	103.464386	42.113594
789.938538	6.147725	118.326874	47.073193
790.337158	65.672295	56.375423	47.073193
790.735718	50.796768	58.854752	76.822533
791.134094	-65.858009	56.375423	59.470585
791.532532	-33.568565	51.416599	61.949650
791.930847	-55.920906	140.613892	32.193020
792.329224	-31.085606	78.685379	61.949650
792.727417	63.193253	-3.158469	37.153450
793.125610	1.184703	138.137924	-14.952358
793.523682	33.437248	103.464386	-32.331192
793.921753	-50.952923	83.641945	-29.848148
794.319824	-75.796677	96.031769	54.511883
794.717773	1.184703	43.977524	22.270792
795.115723	16.072655	78.685379	54.511883
795.513550	35.917530	78.685379	118.942101
795.911377	3.666199	96.031769	9.865636
796.309082	65.672295	14.211764	91.691605
796.706787	-41.018353	29.096577	27.232048
797.104370	-55.920906	76.206879	-29.848148
797.501953	21.034428	58.854752	-2.541988
797.899536	-103.137115	56.375423	-0.060201
798.296936	-31.085606	76.206879	32.193020
798.694397	38.397568	130.709564	19.789942
799.091736	-21.154404	81.163788	4.902926
799.489014	35.917530	29.096577	-0.060201
799.886230	11.110331	9.249419	19.789942
800.283447	16.072655	41.497578	9.865636
800.680542	35.917530	88.598236	-52.198933
801.077637	-80.766777	14.211764	-32.331192
801.474670	-110.595825	36.537514	-2.541988
801.871643	-90.708138	81.163788	12.346902
802.268555	-78.281677	14.211764	-32.331192
802.665405	21.034428	31.576902	24.751539
803.062256	6.147725	58.854752	17.309122
803.458923	-70.827133	48.936966	47.073193
803.855652	-28.602615	-10.604401	2.421347
804.252258	28.476376	76.206879	-19.917156
804.648804	-65.858009	68.770889	32.193020
805.045410	-33.568565	91.076096	-32.331192
805.441833	-28.602615	108.418915	12.346902
805.838257	-28.602615	63.813091	2.421347
806.234619	-16.189367	76.206879	66.907730
806.630859	-18.671833	14.211764	47.073193
807.027100	16.072655	19.173828	-17.434637
807.423279	23.515226	-5.640252	-27.365210
807.819458	35.917530	36.537514	-2.541988
808.215515	6.147725	29.096577	-19.917156
808.611572	28.476376	-5.640252	-29.848148
809.007507	-70.827133	19.173828	64.428741
809.403381	-23.637081	36.537514	9.865636
809.799194	-60.889179	88.598236	29.712585
810.195068	-45.985493	81.163788	-27.365210
810.590759	-55.920906	86.120140	22.270792
810.986450	-26.119728	9.249419	-19.917156
811.382080	-28.602615	48.936966	-17.434637
811.777649	-28.602615	29.096577	-9.987843
812.173157	-28.602615	4.286657	-22.399780
812.568665	-28.602615	-25.499090	-5.023880
812.964050	-53.436863	-15.568833	7.384400
813.359375	-13.707139	-3.158469	22.270792
813.754639	-43.501873	93.553986	52.032379
814.149841	-36.051769	-10.604401	-24.882511
814.545105	-33.568565	43.977524	-49.715179
814.940186	-16.189367	19.173828	19.789942
815.335266	-41.018353	9.249419	42.113594
815.730347	-65.858009	-42.881050	-34.814205
816.125244	-21.154404	-0.676656	7.384400
816.520203	-85.737175	86.120140	-5.023880
816.914978	-11.224882	24.135342	2.421347
817.309753	-45.985493	81.163788	14.828064
817.704468	-48.469223	93.553986	-49.715179
818.099182	-41.018353	71.249695	-34.814205
818.493774	53.276192	68.770889	-24.882511
818.888367	73.108673	11.730711	-42.264153
819.282898	53.276192	19.173828	7.384400
819.677307	78.065834	63.813091	9.865636
820.071716	-80.766777	36.537514	-37.297462
820.466003	-21.154404	103.464386	-0.060201
820.860291	-68.342453	48.936966	19.789942
821.254517	-55.920906	86.120140	-37.297462
821.648743	-70.827133	56.375423	-49.715179
822.042786	-53.436863	36.537514	7.384400
822.436890	-55.920906	41.497578	-37.297462
822.830872	-120.542297	4.286657	-29.848148
823.224792	-21.154404	4.286657	-29.848148
823.618774	-6.260815	26.616011	-27.365210
824.012512	-53.436863	14.211764	-37.297462
824.406311	6.147725	-18.051275	-14.952358
824.799988	-16.189367	43.977524	-5.023880
825.193665	-75.796677	-10.604401	2.421347
825.587280	-31.085606	86.120140	-17.434637
825.980835	-50.952923	-8.122274	-29.848148
826.374329	-83.251991	-0.676656	-7.505876
826.767761	-60.889179	-15.568833	-64.619820
827.161194	-128.003250	19.173828	-12.470047
827.554443	16.072655	-40.397556	2.421347
827.947754	-1.297032	-5.640252	-57.167023
828.340942	-3.778872	36.537514	-79.528275
828.734131	-118.055481	1.805053	-82.013428
829.127136	1.184703	-5.640252	-82.013428
829.520264	-68.342453	-27.981951	-54.682926
829.913208	45.837345	21.654705	-47.231400
830.306152	-28.602615	-40.397556	-14.952358
830.699097	-33.568565	-3.158469	32.193020
831.091797	-78.281677	11.730711	-17.434637
831.484619	-28.602615	-23.016335	19.789942
831.877319	-6.260815	21.654705	-52.198933
832.270020	-85.737175	19.173828	-22.399780
832.662537	6.147725	-15.568833	-17.434637
833.055054	18.553661	-45.364647	-19.917156
833.447510	-31.085606	4.286657	-7.505876
833.839966	-73.311920	-62.752510	-59.651093
834.232361	-11.224882	-37.914173	-22.399780
834.624634	-8.742728	-27.981951	-49.715179
835.016907	-8.742728	76.206879	-59.651093
835.409058	-65.858009	51.416599	-64.619820
835.801208	13.591545	6.768023	19.789942
836.193298	-48.469223	83.641945	-59.651093
836.585327	-3.778872	43.977524	19.789942
836.977295	-16.189367	41.497578	-42.264153
837.369202	21.034428	29.096577	22.270792
837.761047	-13.707139	-55.299820	-34.814205
838.152832	-41.018353	63.813091	-0.060201
838.544617	-38.535076	81.163788	-47.231400
838.936218	-75.796677	-13.086497	-12.470047
839.327942	-21.154404	34.057262	24.751539
839.719421	-33.568565	-13.086497	-72.073570
840.111023	-26.119728	9.249419	-14.952358
840.502380	-55.920906	53.896133	37.153450
840.893860	-58.404926	-77.660484	-7.505876
841.285217	-53.436863	-5.640252	-22.399780
841.676453	-48.469223	-50.332020	-62.135403
842.067749	-85.737175	31.576902	-62.135403
842.458862	-65.858009	-25.499090	-12.470047
842.849976	-3.778872	-47.848213	29.712585
843.241028	3.666199	-27.981951	12.346902
843.632019	-33.568565	6.768023	-14.952358
844.022949	30.956865	39.017666	-79.528275
844.413879	-80.766777	-25.499090	-52.198933
844.804749	-50.952923	34.057262	-57.167023
845.195496	13.591545	-15.568833	-22.399780
845.586182	-1.297032	16.692848	-19.917156
845.976807	-90.708138	-37.914173	-84.498695
846.367432	-55.920906	-10.604401	-17.434637
846.757996	-45.985493	-15.568833	-29.848148
847.148499	-45.985493	14.211764	-34.814205
847.538879	-75.796677	-45.364647	-49.715179
847.929260	16.072655	-5.640252	-37.297462
848.319641	11.110331	-10.604401	32.193020
848.709839	-31.085606	58.854752	-22.399780
849.100098	-13.707139	-5.640252	-2.541988
849.490234	-26.119728	-25.499090	-24.882511
849.880310	-50.952923	-62.752510	-44.747723
850.270325	-150.392059	-0.676656	4.902926
850.660339	-48.469223	-23.016335	-19.917156
851.050171	28.476376	46.457363	-19.917156
851.440125	-85.737175	19.173828	-62.135403
851.829895	-16.189367	6.768023	-57.167023
852.219604	35.917530	-35.431026	56.991283
852.609314	3.666199	56.375423	-27.365210
852.998901	-41.018353	-45.364647	44.593376
853.388550	-75.796677	-47.848213	-2.541988
853.778015	21.034428	41.497578	-14.952358
854.167480	-83.251991	-13.086497	-72.073570
854.556885	60.714241	56.375423	-57.167023
854.946228	-60.889179	-45.364647	-24.882511
855.335571	-50.952923	-27.981951	-62.135403
855.724731	-132.977844	11.730711	-52.198933
856.113953	-75.796677	53.896133	-62.135403
856.503052	-41.018353	14.211764	-129.250916
856.892151	-1.297032	39.017666	-72.073570
857.281067	-33.568565	19.173828	-49.715179
857.670105	-58.404926	-3.158469	9.865636
858.058960	-33.568565	46.457363	17.309122
858.447754	-55.920906	-102.515656	-37.297462
858.836609	-36.051769	19.173828	-37.297462
859.225281	-23.637081	-45.364647	-52.198933
859.613892	-3.778872	-47.848213	17.309122
860.002502	45.837345	-30.464781	-57.167023
860.391052	30.956865	-52.815933	44.593376
860.779541	-88.222603	-3.158469	-29.848148
861.167969	-26.119728	29.096577	-14.952358
861.556335	-58.404926	-57.783943	-12.470047
861.944702	35.917530	-23.016335	-39.780819
862.332947	-43.501873	-67.721367	-44.747723
862.721069	33.437248	-23.016335	-29.848148
863.109253	-38.535076	34.057262	-12.470047
863.497314	-26.119728	21.654705	-5.023880
863.885376	3.666199	26.616011	-9.987843
864.273315	13.591545	36.537514	-9.987843
864.661255	-26.119728	-65.236816	44.593376
865.049072	-26.119728	21.654705	-22.399780
865.436890	13.591545	-25.499090	-82.013428
865.824707	-43.501873	53.896133	-64.619820
866.212280	-50.952923	53.896133	-2.541988
866.599915	16.072655	-25.499090	-14.952358
866.987488	-18.671833	1.805053	4.902926
867.375061	-73.311920	-42.881050	-0.060201
867.762451	-73.311920	-18.051275	-17.434637
868.149841	25.995920	4.286657	-29.848148
868.537170	-55.920906	1.805053	9.865636
868.924438	-60.889179	-30.464781	-67.104340
869.311707	-3.778872	-18.051275	-5.023880
869.698853	16.072655	-45.364647	7.384400
870.085938	-50.952923	56.375423	-17.434637
870.472961	-58.404926	-72.690643	-44.747723
870.859985	-70.827133	43.977524	-32.331192
871.246887	11.110331	19.173828	-34.814205
871.633789	-23.637081	-32.947849	-69.588829
872.020569	11.110331	-55.299820	-54.682926
872.407349	-55.920906	-23.016335	-17.434637
872.794067	-1.297032	19.173828	-59.651093
873.180725	-11.224882	-10.604401	-49.715179
873.567322	35.917530	-5.640252	-32.331192
873.953796	-21.154404	-52.815933	-62.135403
874.340332	-43.501873	-72.690643	24.751539
874.726624	-65.858009	-72.690643	-74.558411
875.113037	-13.707139	-10.604401	-39.780819
875.499329	-31.085606	-8.122274	-91.954994
875.885559	-26.119728	-23.016335	-34.814205
876.271729	16.072655	9.249419	19.789942
876.657898	3.666199	-18.051275	-52.198933
877.044006	-53.436863	-55.299820	-49.715179
877.429932	-23.637081	-77.660484	-27.365210
877.815918	25.995920	9.249419	-14.952358
878.201782	-8.742728	41.497578	-37.297462
878.587585	-23.637081	58.854752	12.346902
878.973389	3.666199	-13.086497	2.421347
879.359070	13.591545	-18.051275	-54.682926
879.744751	21.034428	6.768023	-29.848148
880.130310	-36.051769	-82.630608	-86.983932
880.515930	-83.251991	71.249695	-59.651093
880.901367	-55.920906	-30.464781	-69.588829
881.286804	-45.985493	-30.464781	-37.297462
881.672180	-1.297032	11.730711	-24.882511
882.057434	-93.193634	-15.568833	-69.588829
882.442749	-75.796677	26.616011	4.902926
882.827942	13.591545	4.286657	-5.023880
883.213013	-21.154404	26.616011	29.712585
883.598145	-53.436863	39.017666	-2.541988
883.983154	-11.224882	-85.115906	34.673218
884.368042	-90.708138	-15.568833	-96.926346
884.753052	-43.501873	-13.086497	-12.470047
885.137817	-31.085606	-25.499090	-27.365210
885.522644	-36.051769	26.616011	-79.528275
885.907349	25.995920	-90.086670	-7.505876
886.292053	-23.637081	16.692848	-82.013428
886.676636	-13.707139	-0.676656	-57.167023
887.061157	-70.827133	-20.533821	-24.882511
887.445740	-18.671833	-18.051275	-47.231400
887.830078	53.276192	-20.533821	42.113594
888.214539	-38.535076	-40.397556	-17.434637
888.598816	-41.018353	-23.016335	-17.434637
888.983093	-50.952923	-67.721367	-54.682926
889.367249	16.072655	-72.690643	-54.682926
889.751465	-53.436863	-82.630608	-39.780819
890.135498	-3.778872	-3.158469	-96.926346
890.519531	-38.535076	16.692848	-37.297462
890.903503	11.110331	-27.981951	2.421347
891.287415	-58.404926	-67.721367	-22.399780
891.671326	28.476376	-5.640252	-62.135403
892.055054	-6.260815	-42.881050	32.193020
892.438843	-8.742728	29.096577	2.421347
892.822510	45.837345	-50.332020	-7.505876
893.206116	-8.742728	-82.630608	-17.434637
893.589661	23.515226	29.096577	-42.264153
893.973206	-80.766777	-13.086497	-9.987843
894.356628	-23.637081	9.249419	-27.365210
894.739990	-68.342453	-10.604401	-34.814205
895.123352	-83.251991	31.576902	-44.747723
895.506592	-36.051769	19.173828	17.309122
895.889832	-8.742728	-40.397556	-9.987843
896.272949	6.147725	29.096577	-62.135403
896.656067	-23.637081	-55.299820	17.309122
897.039063	-18.671833	-25.499090	-69.588829
897.422058	-36.051769	-60.268173	-44.747723
897.804993	-128.003250	-45.364647	-44.747723
898.187866	-11.224882	-47.848213	12.346902
898.570618	-70.827133	-20.533821	-44.747723
898.953369	-60.889179	-70.206017	-91.954994
899.336121	-85.737175	-52.815933	-22.399780
899.718689	-31.085606	46.457363	-17.434637
900.101257	-33.568565	-60.268173	-22.399780
900.483704	-105.623291	14.211764	-67.104340
900.866211	-1.297032	-8.122274	-67.104340
901.248596	6.147725	31.576902	-22.399780
901.630920	-26.119728	-0.676656	-74.558411
902.013184	-33.568565	-10.604401	-54.682926
902.395386	8.629148	-15.568833	-27.365210
902.777588	-16.189367	-70.206017	-37.297462
903.159668	8.629148	-15.568833	4.902926
903.541687	3.666199	-42.881050	-49.715179
903.923645	48.317108	-5.640252	84.257530
904.305603	-63.373543	-23.016335	-52.198933
904.687500	-23.637081	-35.431026	-12.470047
905.069275	-75.796677	-25.499090	-5.023880
905.451050	-48.469223	-52.815933	-96.926346
905.832642	35.917530	-92.572281	12.346902
906.214294	-118.055481	-77.660484	-82.013428
906.595825	-65.858009	-30.464781	-52.198933
906.977417	13.591545	-25.499090	-5.023880
907.358826	-26.119728	14.211764	-24.882511
907.740234	-58.404926	6.768023	-34.814205
908.121582	-11.224882	31.576902	-64.619820
908.502869	-3.778872	4.286657	-14.952358
908.884033	6.147725	9.249419	-2.541988
909.265198	-6.260815	-55.299820	-5.023880
909.646301	-23.637081	-18.051275	-12.470047
910.027344	-16.189367	68.770889	-7.505876
910.408325	-75.796677	-72.690643	-29.848148
910.789246	-70.827133	1.805053	2.421347
911.170105	-70.827133	53.896133	-44.747723
911.550903	50.796768	21.654705	-22.399780
911.931641	-50.952923	-72.690643	-44.747723
912.312317	-85.737175	66.291969	-57.167023
912.692932	13.591545	58.854752	-2.541988
913.073547	-11.224882	1.805053	4.902926
913.453979	3.666199	36.537514	12.346902
913.834473	-38.535076	-32.947849	-0.060201
914.214783	-6.260815	-32.947849	-54.682926
914.595154	16.072655	-62.752510	22.270792
914.975464	-100.651054	31.576902	-7.505876
915.355652	8.629148	-20.533821	-19.917156
915.735840	8.629148	4.286657	-62.135403
916.115845	25.995920	-50.332020	42.113594
916.495972	-48.469223	-8.122274	-22.399780
916.875854	6.147725	-102.515656	-74.558411
917.255859	18.553661	-25.499090	-57.167023
917.635620	-68.342453	-67.721367	52.032379
918.015503	-23.637081	6.768023	29.712585
918.395203	-58.404926	-57.783943	-74.558411
918.774902	40.877644	-10.604401	-57.167023
919.154480	8.629148	71.249695	-9.987843
919.534058	-53.436863	-32.947849	-2.541988
919.913574	1.184703	-23.016335	24.751539
920.292969	8.629148	14.211764	-47.231400
920.672363	-68.342453	-32.947849	76.822533
921.051636	6.147725	11.730711	-47.231400
921.430969	-55.920906	-18.051275	-14.952358
921.810181	18.553661	-0.676656	-82.013428
922.189331	-6.260815	34.057262	-47.231400
922.568420	-16.189367	-10.604401	-34.814205
922.947388	25.995920	9.249419	-62.135403
923.326416	-16.189367	-117.433868	-96.926346
923.705261	-60.889179	-62.752510	7.384400
924.084106	-43.501873	-32.947849	2.421347
924.462891	-28.602615	-47.848213	-124.276787
924.841675	-41.018353	-5.640252	-47.231400
925.220337	65.672295	-30.464781	-39.780819
925.598938	-28.602615	-20.533821	-82.013428
925.977478	-65.858009	4.286657	-17.434637
926.355957	-43.501873	-32.947849	-72.073570
926.734436	-55.920906	-3.158469	-27.365210
927.112732	-63.373543	34.057262	-27.365210
927.491089	-98.165230	-18.051275	-12.470047
927.869324	8.629148	-10.604401	81.779251
928.247559	-45.985493	6.768023	-17.434637
928.625671	-1.297032	34.057262	-39.780819
929.003723	-26.119728	-30.464781	-77.043221
929.381775	13.591545	-112.460747	-119.302940
929.759705	-41.018353	-10.604401	-9.987843
930.137634	-55.920906	-18.051275	-39.780819
930.515381	33.437248	1.805053	-57.167023
930.893250	-3.778872	-60.268173	-9.987843
931.270935	35.917530	-25.499090	-109.356804
931.648560	-63.373543	-90.086670	-44.747723
932.026123	-98.165230	-82.630608	-12.470047
932.403687	18.553661	-18.051275	-37.297462
932.781250	8.629148	-27.981951	59.470585
933.158630	-110.595825	-30.464781	17.309122
933.536011	-83.251991	-47.848213	-57.167023
933.913208	-21.154404	16.692848	-49.715179
934.290527	-23.637081	-27.981951	-2.541988
934.667664	63.193253	-13.086497	-89.469414
935.044800	-3.778872	-8.122274	-17.434637
935.421814	-16.189367	-77.660484	-0.060201
935.798889	-45.985493	53.896133	-19.917156
936.175842	-100.651054	16.692848	-5.023880
936.552673	-36.051769	-45.364647	14.828064
936.929504	-90.708138	29.096577	27.232048
937.306274	-36.051769	4.286657	-101.898262
937.683044	-31.085606	-3.158469	32.193020
938.059570	-68.342453	-70.206017	-7.505876
938.436218	25.995920	-13.086497	27.232048
938.812744	-21.154404	-20.533821	17.309122
939.189148	13.591545	-27.981951	7.384400
939.565613	-3.778872	-18.051275	-89.469414
939.941956	-50.952923	34.057262	-9.987843
940.318237	-45.985493	-18.051275	-42.264153
940.694458	-65.858009	-55.299820	-74.558411
941.070557	-53.436863	-15.568833	-79.528275
941.446655	-85.737175	-67.721367	-44.747723
941.822693	-80.766777	41.497578	-17.434637
942.198669	-38.535076	14.211764	-91.954994
942.574646	-45.985493	-50.332020	-57.167023
942.950562	-88.222603	1.805053	-49.715179
943.326294	-60.889179	-57.783943	-32.331192
943.702026	-50.952923	-32.947849	-84.498695
944.077698	-48.469223	14.211764	-17.434637
944.453369	13.591545	-30.464781	-44.747723
944.828918	-33.568565	-40.397556	-17.434637
945.204468	-60.889179	-8.122274	-74.558411
945.579834	-8.742728	-70.206017	-29.848148
945.955261	38.397568	-97.543686	29.712585
946.330627	38.397568	6.768023	-62.135403
946.705811	-21.154404	-42.881050	-69.588829
947.081055	1.184703	-13.086497	-94.440552
947.456177	45.837345	-32.947849	-24.882511
947.831238	-68.342453	-18.051275	-62.135403
948.206238	28.476376	36.537514	-59.651093
948.581238	-33.568565	-60.268173	2.421347
948.956116	-63.373543	26.616011	-74.558411
949.330933	-28.602615	-42.881050	-54.682926
949.705811	35.917530	46.457363	-9.987843
950.080505	-8.742728	-27.981951	-101.898262
950.455139	-58.404926	11.730711	-24.882511
950.829773	-78.281677	36.537514	-64.619820
951.204346	-80.766777	16.692848	-12.470047
951.578735	-31.085606	-32.947849	37.153450
951.953186	-73.311920	-18.051275	-29.848148
952.327515	-6.260815	-72.690643	-12.470047
952.701843	-18.671833	19.173828	-89.469414
953.076172	-18.671833	-82.630608	-72.073570
953.450195	-50.952923	-5.640252	-69.588829
953.824341	-50.952923	-47.848213	-82.013428
954.198486	-70.827133	-32.947849	-14.952358
954.572449	-43.501873	-13.086497	-12.470047
954.946350	-80.766777	-20.533821	-59.651093
955.320251	25.995920	-27.981951	19.789942
955.694092	13.591545	-3.158469	-57.167023
956.067871	-80.766777	-80.145561	-52.198933
956.441589	3.666199	76.206879	-32.331192
956.815125	-50.952923	-60.268173	-17.434637
957.188721	-58.404926	-3.158469	-0.060201
957.562256	-31.085606	-18.051275	-106.870468
957.935730	6.147725	-55.299820	-34.814205
958.309021	-26.119728	-87.601303	-44.747723
958.682373	-103.137115	-13.086497	-94.440552
959.055664	-1.297032	56.375423	-5.023880
959.428955	-8.742728	61.333969	-27.365210
959.802063	-60.889179	1.805053	-67.104340
960.175110	-21.154404	-32.947849	-12.470047
960.548157	33.437248	-37.914173	14.828064
960.921143	-23.637081	-8.122274	-141.688354
961.294128	-31.085606	26.616011	-62.135403
961.666809	-75.796677	-30.464781	-7.505876
962.039612	21.034428	-23.016335	-42.264153
962.412415	-6.260815	58.854752	-91.954994
962.785095	-36.051769	-37.914173	-12.470047
963.157715	-70.827133	14.211764	-27.365210
963.530151	-88.222603	-52.815933	-47.231400
963.902649	-45.985493	-47.848213	-2.541988
964.275146	18.553661	-25.499090	12.346902
964.647522	-68.342453	-23.016335	-19.917156
965.019714	-125.516251	-27.981951	-39.780819
965.392029	30.956865	14.211764	-19.917156
965.764160	8.629148	-27.981951	-54.682926
966.136292	21.034428	31.576902	-24.882511
966.508423	8.629148	-5.640252	4.902926
966.880371	-18.671833	-50.332020	-44.747723
967.252319	-95.679382	51.416599	-44.747723
967.624207	-3.778872	-15.568833	-42.264153
967.996094	25.995920	34.057262	-0.060201
968.367737	-100.651054	-30.464781	-91.954994
968.739441	-13.707139	11.730711	-47.231400
969.111084	-3.778872	-37.914173	-39.780819
969.482666	-38.535076	-37.914173	-54.682926
969.854248	-63.373543	1.805053	-5.023880
970.225586	-55.920906	43.977524	-57.167023
970.596985	16.072655	34.057262	-42.264153
970.968323	-16.189367	-3.158469	-47.231400
971.339661	11.110331	36.537514	-14.952358
971.710754	-18.671833	-20.533821	-67.104340
972.081909	-45.985493	-47.848213	-2.541988
972.453064	-41.018353	-3.158469	-42.264153
972.824097	-70.827133	-35.431026	-17.434637
973.194946	-11.224882	-27.981951	-24.882511
973.565918	13.591545	-60.268173	-77.043221
973.936768	16.072655	11.730711	-72.073570
974.307556	-65.858009	-0.676656	-126.763863
974.678284	-1.297032	-35.431026	-39.780819
975.048828	-50.952923	29.096577	-24.882511
975.419495	-43.501873	-18.051275	-64.619820
975.790039	-53.436863	-35.431026	-22.399780
976.160522	-26.119728	-8.122274	2.421347
976.530884	-43.501873	-20.533821	-106.870468
976.901245	-58.404926	29.096577	-32.331192
977.271606	-48.469223	26.616011	17.309122
977.641846	3.666199	4.286657	-49.715179
978.012024	-55.920906	-20.533821	-32.331192
978.382019	-8.742728	9.249419	49.552902
978.752136	-70.827133	-15.568833	-32.331192
979.122131	16.072655	-30.464781	-14.952358
979.492065	-63.373543	-27.981951	-57.167023
979.861877	3.666199	29.096577	-77.043221
980.231689	-93.193634	16.692848	-39.780819
980.601440	-68.342453	-60.268173	-7.505876
980.971191	-78.281677	63.813091	7.384400
981.340820	-43.501873	19.173828	37.153450
981.710266	23.515226	-52.815933	-32.331192
982.079773	-11.224882	-23.016335	-34.814205
982.449280	-73.311920	24.135342	-14.952358
982.818604	3.666199	6.768023	17.309122
983.187866	-105.623291	-5.640252	-64.619820
983.557129	-58.404926	-85.115906	-47.231400
983.926331	-28.602615	-8.122274	-52.198933
984.295471	30.956865	39.017666	-106.870468
984.664612	-43.501873	-35.431026	-57.167023
985.033569	-58.404926	73.728271	-39.780819
985.402527	-60.889179	31.576902	7.384400
985.771362	-55.920906	-70.206017	-72.073570
986.140259	-21.154404	4.286657	-114.329659
986.508911	-55.920906	4.286657	-24.882511
986.877625	-31.085606	11.730711	-12.470047
987.246277	-18.671833	-10.604401	56.991283
987.614929	-31.085606	-20.533821	-72.073570
987.983459	-16.189367	-27.981951	24.751539
988.351807	21.034428	-45.364647	2.421347
988.720215	-8.742728	-112.460747	-79.528275
989.088623	-93.193634	-10.604401	-17.434637
989.456909	55.755642	-23.016335	-44.747723
989.825012	-43.501873	-42.881050	44.593376
990.193115	-70.827133	-20.533821	-24.882511
990.561279	11.110331	-10.604401	-19.917156
990.929321	80.544128	31.576902	-9.987843
991.297302	50.796768	-70.206017	9.865636
991.665100	-6.260815	39.017666	-74.558411
992.033020	-38.535076	-5.640252	2.421347
992.400818	-63.373543	-25.499090	-2.541988
992.768494	-105.623291	-27.981951	-34.814205
993.136047	-93.193634	51.416599	-24.882511
993.503723	-1.297032	9.249419	-84.498695
993.871277	-53.436863	-65.236816	-47.231400
994.238770	-65.858009	-82.630608	-32.331192
994.606140	-23.637081	-32.947849	-109.356804
994.973450	-13.707139	-0.676656	-84.498695
995.340759	-16.189367	-8.122274	-54.682926
995.708008	-50.952923	-23.016335	-7.505876
996.075195	-50.952923	-15.568833	-24.882511
996.442200	-85.737175	-23.016335	14.828064
996.809265	-48.469223	-20.533821	-54.682926
997.176270	-31.085606	-40.397556	-49.715179
997.543152	-31.085606	21.654705	-96.926346
997.910095	-8.742728	-25.499090	-24.882511
998.276733	-55.920906	-65.236816	-106.870468
998.643494	8.629148	16.692848	-37.297462
999.010193	-1.297032	-27.981951	-47.231400
999.376831	68.151237	-5.640252	2.421347
999.743286	63.193253	-0.676656	-24.882511
1000.109802	-3.778872	-40.397556	-77.043221
1000.476257	-18.671833	-13.086497	-62.135403
1000.842651	1.184703	-45.364647	-5.023880
1001.208923	-8.742728	-20.533821	-17.434637
1001.575134	-33.568565	-42.881050	-82.013428
1001.941284	30.956865	-8.122274	-52.198933
1002.307434	-11.224882	16.692848	54.511883
1002.673523	-26.119728	-154.746429	-12.470047
1003.039429	11.110331	-77.660484	56.991283
1003.405334	33.437248	-42.881050	54.511883
1003.771179	-21.154404	-10.604401	-52.198933
1004.137024	-16.189367	39.017666	-44.747723
1004.502808	8.629148	-50.332020	-54.682926
1004.868408	-8.742728	-40.397556	-37.297462
1005.234009	-38.535076	-30.464781	-54.682926
1005.599609	21.034428	-47.848213	-64.619820
1005.965149	-36.051769	-50.332020	-22.399780
1006.330444	-38.535076	-3.158469	-34.814205
1006.695862	-63.373543	-25.499090	-24.882511
1007.061218	-88.222603	-3.158469	2.421347
1007.426453	-38.535076	-20.533821	-19.917156
1007.791626	-26.119728	-70.206017	-5.023880
1008.156677	-53.436863	-15.568833	-5.023880
1008.521729	-31.085606	-32.947849	27.232048
1008.886780	-68.342453	36.537514	-52.198933
1009.251709	-58.404926	21.654705	-2.541988
1009.616577	-100.651054	-27.981951	-64.619820
1009.981384	-73.311920	88.598236	-0.060201
1010.346130	-53.436863	58.854752	-54.682926
1010.710754	-68.342453	-77.660484	-52.198933
1011.075439	-105.623291	14.211764	-77.043221
1011.439941	-26.119728	53.896133	-119.302940
1011.804443	-41.018353	6.768023	9.865636
1012.168884	28.476376	26.616011	-64.619820
1012.533325	-43.501873	26.616011	-64.619820
1012.897522	-38.535076	-20.533821	-69.588829
1013.261780	-48.469223	-35.431026	-79.528275
1013.626038	11.110331	-67.721367	-57.167023
1013.990112	-3.778872	-122.407547	24.751539
1014.354187	-11.224882	-15.568833	52.032379
1014.718140	-23.637081	-32.947849	2.421347
1015.082153	-58.404926	-50.332020	-96.926346
1015.446045	-90.708138	-32.947849	19.789942
1015.809937	-53.436863	-37.914173	17.309122
1016.173523	-33.568565	-5.640252	-86.983932
1016.537170	6.147725	-23.016335	-44.747723
1016.900879	-18.671833	-3.158469	-89.469414
1017.264404	-63.373543	19.173828	19.789942
1017.627991	-53.436863	-52.815933	-49.715179
1017.991333	-11.224882	-30.464781	-52.198933
1018.354675	-16.189367	1.805053	-57.167023
1018.718018	25.995920	-5.640252	-22.399780
1019.081299	-13.707139	36.537514	39.633572
1019.444397	-123.029221	36.537514	22.270792
1019.807495	30.956865	-42.881050	-72.073570
1020.170593	-45.985493	58.854752	-64.619820
1020.533691	-41.018353	-8.122274	-44.747723
1020.896606	21.034428	-80.145561	-69.588829
1021.259460	-63.373543	-25.499090	-64.619820
1021.622253	-85.737175	-32.947849	-17.434637
1021.985046	-6.260815	-77.660484	-154.128342
1022.347778	-6.260815	-70.206017	-27.365210
1022.710327	-103.137115	26.616011	-52.198933
1023.072876	-48.469223	-45.364647	-5.023880
1023.435364	-43.501873	9.249419	-37.297462
1023.797852	-93.193634	-95.057999	-91.954994
1024.160278	-90.708138	-65.236816	-69.588829
1024.522461	-21.154404	1.805053	-62.135403
1024.884766	-41.018353	-27.981951	-44.747723
1025.246948	-105.623291	-72.690643	-49.715179
1025.609131	23.515226	-10.604401	49.552902
1025.971069	-23.637081	-20.533821	2.421347
1026.333130	-33.568565	26.616011	37.153450
1026.694946	-45.985493	-47.848213	-2.541988
1027.056885	-41.018353	-95.057999	-14.952358
1027.418823	-31.085606	41.497578	-44.747723
1027.780396	-28.602615	-57.783943	-24.882511
1028.142090	-6.260815	-72.690643	-27.365210
1028.503784	-8.742728	-87.601303	19.789942
1028.865479	-16.189367	-95.057999	17.309122
1029.226807	-18.671833	-32.947849	-106.870468
1029.588135	-18.671833	-25.499090	22.270792
1029.949707	-60.889179	9.249419	-32.331192
1030.310913	23.515226	4.286657	-72.073570
1030.672241	-11.224882	-57.783943	7.384400
1031.033325	-63.373543	48.936966	-44.747723
1031.394531	3.666199	39.017666	-42.264153
1031.755493	8.629148	-40.397556	2.421347
1032.116577	-60.889179	-3.158469	-39.780819
1032.477417	55.755642	-27.981951	-47.231400
1032.838257	58.234997	19.173828	9.865636
1033.199097	-70.827133	-25.499090	-39.780819
1033.559937	23.515226	-8.122274	-59.651093
1033.920654	23.515226	-13.086497	-24.882511
1034.281128	3.666199	-20.533821	7.384400
1034.641724	-36.051769	-35.431026	-27.365210
1035.002197	-16.189367	4.286657	24.751539
1035.362671	-95.679382	39.017666	-17.434637
1035.722900	11.110331	-0.676656	-67.104340
1036.083252	-70.827133	-32.947849	-19.917156
1036.443481	-118.055481	29.096577	-44.747723
1036.803711	-58.404926	-15.568833	-49.715179
1037.163940	-26.119728	-37.914173	-49.715179
1037.523804	-36.051769	39.017666	-49.715179
1037.883789	53.276192	-42.881050	-39.780819
1038.243774	-43.501873	11.730711	27.232048
1038.603638	-31.085606	-25.499090	-104.384247
1038.963257	-8.742728	63.813091	-49.715179
1039.323120	73.108673	-18.051275	-69.588829
1039.682861	-3.778872	-35.431026	-12.470047
>>>>>End Processed Spectral Data<<<<<
