Jaz Data File
++++++++++++++++++++++++++++++++++++
Date: Mon Dec 08 17:23:34 2014
User: jaz
Dark Spectrum Present: Yes
Reference Spectrum Present: Yes
Processed Spectrum Present: No
Spectrometers: JAZA2310
Integration Time (usec): 2000 (JAZA2310)
Spectra Averaged: 1 (JAZA2310)
Boxcar Smoothing: 0 (JAZA2310)
Correct for Electrical Dark: Yes (JAZA2310)
Strobe/Lamp Enabled: No (JAZA2310)
Correct for Detector Non-linearity: Yes (JAZA2310)
Correct for Stray Light: No (JAZA2310)
Number of Pixels in Processed Spectrum: 2048
>>>>>Begin Processed Spectral Data<<<<<
W	D	R	S
188.301102	0.000000	0.000000	0.000000
188.764923	0.000000	0.000000	0.000000
189.228699	-125.064178	-70.883759	-59.086441
189.692459	16.523497	-46.042095	-54.118324
190.156158	-48.017754	20.977892	-69.024086
190.619812	21.485367	-28.659199	0.503876
191.083435	4.117270	20.977892	-1.977887
191.547043	6.598778	-28.659199	-24.318060
192.010590	-20.703142	58.178493	45.157028
192.474091	38.848377	40.821125	-41.699669
192.937561	-23.185801	1.128013	35.237103
193.401001	68.601685	8.572464	-16.870394
193.864410	-13.255935	33.380722	0.503876
194.327759	-33.117344	-33.625294	-31.766806
194.791077	-5.809668	11.053784	20.353830
195.254349	9.080047	-6.317378	2.985400
195.717575	26.446688	18.496986	30.276381
196.180786	-80.315063	43.300961	35.237103
196.643951	-48.017754	20.977892	0.503876
197.107071	31.407728	3.609646	25.315378
197.570145	-18.220591	-11.281448	-6.941728
198.033203	-10.773696	-28.659199	-26.800871
198.496216	-3.327743	-31.142191	77.385887
198.959167	31.407728	3.609646	-4.459755
199.422089	-5.809668	18.496986	-69.024086
199.884979	-60.437748	-33.625294	0.503876
200.347855	-35.600395	65.615799	-44.183216
200.810654	6.598778	50.740261	-16.870394
201.273422	-38.083679	102.788498	55.075443
201.736160	-15.738277	25.939255	72.428665
202.198853	4.117270	60.657612	47.636822
202.661514	-43.050575	63.136757	-19.352888
203.124130	-52.985352	30.900337	-14.388138
203.586700	-48.017754	-48.525829	-21.835489
204.049240	-102.685356	85.444061	-83.933807
204.511734	-75.345131	53.219685	-29.283787
204.974197	-5.809668	8.572464	5.466956
205.436615	-28.151295	-73.368546	-98.847214
205.899002	-65.406403	-16.246073	-44.183216
206.361343	-45.534042	6.091175	-78.963425
206.823654	-23.185801	-23.693661	-4.459755
207.285919	-30.634268	40.821125	-4.459755
207.748123	53.726883	-18.728407	-64.055115
208.210327	-15.738277	23.458693	-14.388138
208.672485	-50.501568	-51.009663	-73.993614
209.134583	-65.406403	1.128013	-9.423670
209.596649	-30.634268	63.136757	-21.835489
210.058670	9.080047	-41.075085	-106.305367
210.520676	-15.738277	-83.308624	-36.733028
210.982635	-3.327743	-3.835432	17.873034
211.444534	-87.770821	-31.142191	-41.699669
211.906403	-20.703142	40.821125	-26.800871
212.368240	-20.703142	1.128013	-56.602394
212.830048	-45.534042	43.300961	10.429618
213.291779	-15.738277	8.572464	-73.993614
213.753494	-28.151295	33.380722	2.985400
214.215179	-70.375488	60.657612	-6.941728
214.676819	-60.437748	-21.210981	-1.977887
215.138412	-85.285553	-8.799429	-96.361336
215.599960	-97.713379	-8.799429	-9.423670
216.061493	23.966146	75.530823	-16.870394
216.522949	-120.090401	38.341049	0.503876
216.984406	-62.921959	40.821125	-6.941728
217.445801	6.598778	20.977892	-56.602394
217.907166	-3.327743	48.260597	-41.699669
218.368484	14.042541	38.341049	-19.352888
218.829773	-18.220591	-98.221886	-49.150623
219.291031	-15.738277	25.939255	-39.216366
219.752228	-45.534042	-113.138977	-41.699669
220.213379	-67.890961	6.091175	-14.388138
220.674500	-57.953510	1.128013	2.985400
221.135574	-30.634268	-53.493469	-81.448563
221.596634	-115.116920	75.530823	-21.835489
222.057648	-13.255935	33.380722	-6.941728
222.518600	-90.256332	-51.009663	-44.183216
222.979553	53.726883	-31.142191	-81.448563
223.440430	56.206322	70.573448	-64.055115
223.901276	46.288094	-8.799429	-93.875557
224.362076	-38.083679	-65.914635	22.834656
224.822845	-28.151295	-13.763709	0.503876
225.283569	-28.151295	38.341049	-54.118324
225.744278	-18.220591	3.609646	-29.283787
226.204910	-50.501568	-13.763709	22.834656
226.665512	-35.600395	28.419849	-59.086441
227.126114	-23.185801	45.780830	-21.835489
227.586639	-0.846057	13.535002	-19.352888
228.047119	-122.577171	50.740261	-14.388138
228.507568	-87.770821	-11.281448	35.237103
228.967972	-107.657631	40.821125	15.392000
229.428345	-52.985352	13.535002	-6.941728
229.888687	-82.800247	-11.281448	-93.875557
230.348984	-82.800247	55.699139	69.949905
230.809219	-0.846057	-38.591671	-46.666866
231.269440	-67.890961	13.535002	-16.870394
231.729614	-38.083679	23.458693	47.636822
232.189758	-45.534042	-31.142191	25.315378
232.649841	-43.050575	-33.625294	50.116508
233.109894	-77.829971	25.939255	12.910861
233.569901	-85.285553	-70.883759	-9.423670
234.029892	-23.185801	-23.693661	-36.733028
234.489822	-28.151295	-28.659199	32.756790
234.949707	-97.713379	-8.799429	-31.766806
235.409561	-20.703142	30.900337	-21.835489
235.869385	-50.501568	1.128013	-88.904465
236.329163	-0.846057	20.977892	-19.352888
236.788895	-35.600395	-18.728407	-19.352888
237.248581	36.368217	63.136757	-6.941728
237.708237	-40.567074	-38.591671	-1.977887
238.167847	-55.469379	-16.246073	-39.216366
238.627441	-0.846057	-1.353590	0.503876
239.086960	-57.953510	-31.142191	2.985400
239.546463	-45.534042	20.977892	-116.251106
240.005920	-3.327743	-18.728407	-9.423670
240.465332	-50.501568	-28.659199	-61.570728
240.924698	-13.255935	-28.659199	-69.024086
241.384033	-100.199310	3.609646	32.756790
241.843338	-80.315063	38.341049	-51.634354
242.302597	-100.199310	-16.246073	-66.539619
242.761810	-30.634268	8.572464	-29.283787
243.220993	-105.171371	55.699139	-19.352888
243.680115	16.523497	-46.042095	-41.699669
244.139221	9.080047	-75.853439	-39.216366
244.598282	28.927261	-70.883759	-41.699669
245.057297	-23.185801	-11.281448	20.353830
245.516266	-62.921959	45.780830	50.116508
245.975189	-72.860260	11.053784	-49.150623
246.434082	-23.185801	-13.763709	20.353830
246.892944	-60.437748	-8.799429	-24.318060
247.351761	-67.890961	60.657612	-4.459755
247.810516	-25.668562	-21.210981	-61.570728
248.269272	-15.738277	6.091175	0.503876
248.727951	4.117270	-6.317378	10.429618
249.186600	-23.185801	-26.176310	15.392000
249.645218	-5.809668	23.458693	-31.766806
250.103790	-55.469379	25.939255	-71.508797
250.562317	-110.144005	8.572464	-11.905851
251.020813	-72.860260	25.939255	-44.183216
251.479279	-62.921959	110.220413	-128.685593
251.937668	-25.668562	8.572464	55.075443
252.396057	-20.703142	-43.558468	-34.249798
252.854385	-70.375488	20.977892	-46.666866
253.312683	-77.829971	-85.793816	-14.388138
253.770920	-147.451706	73.052185	-36.733028
254.229126	1.635659	-23.693661	0.503876
254.687302	-20.703142	-46.042095	-6.941728
255.145432	9.080047	3.609646	-69.024086
255.603500	-62.921959	6.091175	20.353830
256.061584	-5.809668	-33.625294	-26.800871
256.519592	-18.220591	-43.558468	-4.459755
256.977570	-52.985352	102.788498	15.392000
257.435455	-52.985352	35.860870	-49.150623
257.893372	6.598778	13.535002	-29.283787
258.351196	-52.985352	-36.108360	-64.055115
258.808990	-33.117344	-1.353590	-51.634354
259.266754	-40.567074	20.977892	-61.570728
259.724487	-90.256332	40.821125	2.985400
260.182190	-20.703142	20.977892	20.353830
260.639832	-23.185801	48.260597	0.503876
261.097443	19.004484	13.535002	-98.847214
261.554993	21.485367	45.780830	-4.459755
262.012512	-130.038391	33.380722	10.429618
262.469971	-87.770821	-18.728407	42.677269
262.927429	-23.185801	38.341049	30.276381
263.384827	-70.375488	-11.281448	22.834656
263.842194	-48.017754	28.419849	-14.388138
264.299530	-125.064178	-8.799429	15.392000
264.756805	-57.953510	1.128013	20.353830
265.214050	-3.327743	16.016113	-29.283787
265.671234	19.004484	-28.659199	-16.870394
266.128387	-85.285553	8.572464	79.864204
266.585510	-100.199310	-100.707840	-9.423670
267.042572	-92.741951	-68.399208	-24.318060
267.499573	-50.501568	-43.558468	-31.766806
267.956604	-57.953510	-26.176310	-31.766806
268.413574	-15.738277	18.496986	-64.055115
268.870483	-50.501568	-41.075085	2.985400
269.327362	-43.050575	-6.317378	-11.905851
269.784180	28.927261	-23.693661	30.276381
270.240936	-43.050575	-8.799429	-36.733028
270.697693	-40.567074	-51.009663	-49.150623
271.154419	-57.953510	3.609646	-41.699669
271.611053	-30.634268	11.053784	-6.941728
272.067688	-90.256332	30.900337	-16.870394
272.524292	-48.017754	11.053784	-14.388138
272.980835	-20.703142	6.091175	10.429618
273.437347	-28.151295	-75.853439	-66.539619
273.893799	-50.501568	11.053784	-34.249798
274.350250	-65.406403	-3.835432	-24.318060
274.806610	-62.921959	-6.317378	-83.933807
275.262939	-77.829971	-16.246073	-14.388138
275.719238	-52.985352	-53.493469	5.466956
276.175507	-10.773696	-1.353590	-6.941728
276.631714	-18.220591	33.380722	-59.086441
277.087891	33.887959	-31.142191	-61.570728
277.544067	-18.220591	48.260597	-9.423670
278.000122	-77.829971	-26.176310	37.717171
278.456177	-149.939789	38.341049	-41.699669
278.912201	-13.255935	-11.281448	17.873034
279.368164	14.042541	-70.883759	-49.150623
279.824097	-20.703142	-41.075085	0.503876
280.279968	-50.501568	13.535002	-46.666866
280.735840	21.485367	18.496986	52.595963
281.191620	-52.985352	-53.493469	-24.318060
281.647400	-33.117344	43.300961	-4.459755
282.103149	-25.668562	1.128013	-98.847214
282.558838	9.080047	38.341049	-69.024086
283.014465	-43.050575	-58.461670	-4.459755
283.470062	-77.829971	50.740261	-54.118324
283.925629	-30.634268	35.860870	32.756790
284.381134	-77.829971	78.009216	-6.941728
284.836639	-43.050575	-11.281448	7.948407
285.292053	-95.227539	63.136757	-24.318060
285.747467	-45.534042	23.458693	-44.183216
286.202820	-57.953510	-26.176310	-54.118324
286.658142	-48.017754	-8.799429	-44.183216
287.113434	-35.600395	-8.799429	0.503876
287.568634	-92.741951	-43.558468	-34.249798
288.023804	-48.017754	11.053784	-36.733028
288.478973	-60.437748	28.419849	-51.634354
288.934113	-28.151295	1.128013	-34.249798
289.389130	-28.151295	-70.883759	37.717171
289.844208	1.635659	-78.338310	-6.941728
290.299164	-23.185801	73.052185	-24.318060
290.754089	-45.534042	11.053784	5.466956
291.208984	-45.534042	6.091175	-41.699669
291.663879	-28.151295	-78.338310	-64.055115
292.118683	-57.953510	6.091175	-44.183216
292.573456	-15.738277	23.458693	-34.249798
293.028198	-10.773696	20.977892	-54.118324
293.482849	-35.600395	-26.176310	30.276381
293.937561	-80.315063	-51.009663	-41.699669
294.392151	-23.185801	58.178493	30.276381
294.846741	-95.227539	-11.281448	-31.766806
295.301239	-45.534042	40.821125	-16.870394
295.755737	-48.017754	58.178493	-39.216366
296.210175	-5.809668	-21.210981	7.948407
296.664581	33.887959	50.740261	-56.602394
297.118958	-33.117344	38.341049	79.864204
297.573242	-30.634268	18.496986	-16.870394
298.027557	48.767841	90.400200	-44.183216
298.481812	-10.773696	87.922180	-46.666866
298.935974	-50.501568	6.091175	-64.055115
299.390137	9.080047	3.609646	-46.666866
299.844238	-35.600395	60.657612	0.503876
300.298340	-48.017754	-13.763709	-14.388138
300.752350	-102.685356	16.016113	27.795862
301.206360	-77.829971	55.699139	10.429618
301.660278	-13.255935	115.174385	-11.905851
302.114197	-80.315063	-8.799429	-56.602394
302.568054	-75.345131	82.965973	-88.904465
303.021881	-15.738277	-48.525829	0.503876
303.475677	-82.800247	-23.693661	-14.388138
303.929413	26.446688	-11.281448	-54.118324
304.383118	1.635659	-55.977516	-81.448563
304.836761	-43.050575	48.260597	52.595963
305.290375	-62.921959	-31.142191	-106.305367
305.743958	-75.345131	-21.210981	-41.699669
306.197510	-60.437748	23.458693	-6.941728
306.650970	-75.345131	-48.525829	-21.835489
307.104431	-105.171371	58.178493	40.197273
307.557800	-65.406403	20.977892	-64.055115
308.011169	-48.017754	38.341049	-78.963425
308.464508	-55.469379	-53.493469	-46.666866
308.917755	-18.220591	23.458693	-14.388138
309.371063	-13.255935	-28.659199	30.276381
309.824219	11.561345	-11.281448	-44.183216
310.277374	-33.117344	6.091175	-29.283787
310.730499	-0.846057	-33.625294	0.503876
311.183563	-38.083679	53.219685	-21.835489
311.636597	-80.315063	65.615799	-19.352888
312.089569	-85.285553	-18.728407	-46.666866
312.542511	11.561345	50.740261	42.677269
312.995422	11.561345	6.091175	-24.318060
313.448273	-77.829971	-8.799429	15.392000
313.901093	-35.600395	18.496986	25.315378
314.353882	-20.703142	58.178493	15.392000
314.806580	4.117270	25.939255	0.503876
315.259308	-67.890961	68.094604	15.392000
315.711975	-35.600395	-38.591671	69.949905
316.164581	-80.315063	3.609646	-83.933807
316.617126	-72.860260	18.496986	-16.870394
317.069672	-60.437748	-1.353590	-34.249798
317.522156	-97.713379	68.094604	60.034100
317.974579	-0.846057	33.380722	-59.086441
318.427002	-60.437748	11.053784	20.353830
318.879333	-50.501568	58.178493	10.429618
319.331665	-45.534042	-31.142191	-34.249798
319.783936	-77.829971	28.419849	-29.283787
320.236176	-85.285553	-6.317378	-21.835489
320.688354	-33.117344	55.699139	2.985400
321.140503	-45.534042	-60.945797	-73.993614
321.592651	-55.469379	20.977892	-16.870394
322.044647	-38.083679	58.178493	-4.459755
322.496704	-23.185801	-31.142191	-4.459755
322.948639	-70.375488	-70.883759	-56.602394
323.400604	-52.985352	28.419849	-51.634354
323.852509	-90.256332	18.496986	-34.249798
324.304352	-0.846057	68.094604	-44.183216
324.756165	-50.501568	35.860870	-88.904465
325.207916	-23.185801	-1.353590	-98.847214
325.659668	-92.741951	-11.281448	37.717171
326.111328	-40.567074	55.699139	-21.835489
326.562988	-55.469379	60.657612	-78.963425
327.014557	28.927261	1.128013	17.873034
327.466156	4.117270	-33.625294	-39.216366
327.917664	21.485367	55.699139	22.834656
328.369110	-48.017754	-70.883759	141.791504
328.820557	-25.668562	6.091175	-6.941728
329.271942	-8.291697	23.458693	-14.388138
329.723297	14.042541	25.939255	-29.283787
330.174561	-80.315063	18.496986	-29.283787
330.625854	-28.151295	18.496986	-73.993614
331.077026	-60.437748	30.900337	40.197273
331.528229	-77.829971	-31.142191	10.429618
331.979370	31.407728	18.496986	-9.423670
332.430450	14.042541	-28.659199	12.910861
332.881500	-38.083679	-13.763709	64.992210
333.332489	-80.315063	-18.728407	-86.419014
333.783478	-65.406403	-31.142191	12.910861
334.234406	-97.713379	-8.799429	35.237103
334.685303	-55.469379	45.780830	-34.249798
335.136078	-33.117344	18.496986	20.353830
335.586914	-48.017754	-46.042095	-44.183216
336.037659	-97.713379	-8.799429	22.834656
336.488342	-23.185801	70.573448	-16.870394
336.939026	-57.953510	1.128013	-29.283787
337.389648	-45.534042	-11.281448	2.985400
337.840240	-35.600395	-26.176310	-24.318060
338.290771	-52.985352	38.341049	-64.055115
338.741272	-25.668562	-70.883759	-93.875557
339.191681	-85.285553	-18.728407	-61.570728
339.642120	-25.668562	-11.281448	-24.318060
340.092468	-100.199310	35.860870	-29.283787
340.542816	-35.600395	58.178493	-71.508797
340.993103	-28.151295	40.821125	17.873034
341.443329	-13.255935	18.496986	-49.150623
341.893555	-77.829971	45.780830	-9.423670
342.343689	-40.567074	-11.281448	-24.318060
342.793793	-40.567074	11.053784	-6.941728
343.243866	-40.567074	23.458693	25.315378
343.693878	31.407728	30.900337	-29.283787
344.143890	-33.117344	-11.281448	25.315378
344.593842	-30.634268	35.860870	0.503876
345.043732	-45.534042	18.496986	-41.699669
345.493591	-43.050575	-1.353590	-14.388138
345.943359	-40.567074	40.821125	42.677269
346.393158	-28.151295	-3.835432	-11.905851
346.842896	-0.846057	38.341049	-34.249798
347.292542	-60.437748	-13.763709	-59.086441
347.742218	-15.738277	73.052185	22.834656
348.191803	-48.017754	28.419849	5.466956
348.641357	19.004484	1.128013	12.910861
349.090881	-28.151295	30.900337	50.116508
349.540314	-50.501568	53.219685	-21.835489
349.989777	-52.985352	25.939255	-29.283787
350.439148	-65.406403	65.615799	52.595963
350.888489	-90.256332	55.699139	-78.963425
351.337799	4.117270	-41.075085	40.197273
351.787048	-25.668562	-1.353590	-51.634354
352.236267	-107.657631	125.081245	22.834656
352.685425	-90.256332	73.052185	-78.963425
353.134552	-52.985352	38.341049	-31.766806
353.583649	-50.501568	16.016113	-76.478401
354.032684	-25.668562	65.615799	-34.249798
354.481659	-13.255935	80.487648	17.873034
354.930634	-43.050575	3.609646	17.873034
355.379517	-45.534042	112.697388	-36.733028
355.828430	-75.345131	8.572464	-31.766806
356.277222	-120.090401	40.821125	-29.283787
356.726013	-38.083679	20.977892	-4.459755
357.174774	6.598778	-33.625294	25.315378
357.623444	6.598778	-33.625294	47.636822
358.072113	-35.600395	-41.075085	0.503876
358.520721	-30.634268	-28.659199	-11.905851
358.969299	-45.534042	13.535002	45.157028
359.417786	-110.144005	53.219685	102.165428
359.866302	-38.083679	-21.210981	-51.634354
360.314697	-40.567074	28.419849	-34.249798
360.763123	-13.255935	25.939255	55.075443
361.211456	-62.921959	13.535002	-9.423670
361.659760	11.561345	75.530823	-31.766806
362.108032	-5.809668	75.530823	-11.905851
362.556244	11.561345	97.833511	-16.870394
363.004456	-55.469379	105.265907	62.513138
363.452576	31.407728	30.900337	47.636822
363.900696	-43.050575	97.833511	42.677269
364.348663	23.966146	80.487648	37.717171
364.796722	-38.083679	85.444061	-16.870394
365.244690	-38.083679	70.573448	40.197273
365.692596	-85.285553	53.219685	10.429618
366.140472	-90.256332	-1.353590	99.687897
366.588287	-87.770821	1.128013	20.353830
367.036102	-43.050575	48.260597	22.834656
367.483826	-33.117344	139.938416	-44.183216
367.931549	-40.567074	92.878120	17.873034
368.379181	-82.800247	-8.799429	-93.875557
368.826843	-0.846057	-21.210981	10.429618
369.274384	-62.921959	38.341049	-21.835489
369.721924	-15.738277	35.860870	-34.249798
370.169403	-50.501568	82.965973	-19.352888
370.616821	-110.144005	55.699139	-56.602394
371.064270	-23.185801	55.699139	5.466956
371.511566	4.117270	58.178493	25.315378
371.958923	-20.703142	68.094604	-6.941728
372.406158	-112.630341	23.458693	-9.423670
372.853424	-77.829971	68.094604	5.466956
373.300568	73.559219	-1.353590	5.466956
373.747711	-10.773696	60.657612	-34.249798
374.194794	-23.185801	107.743217	-19.352888
374.641846	-15.738277	-11.281448	-6.941728
375.088898	-38.083679	120.127953	97.210258
375.535828	-57.953510	105.265907	-11.905851
375.982758	-13.255935	30.900337	42.677269
376.429596	36.368217	43.300961	-24.318060
376.876465	-5.809668	28.419849	52.595963
377.323242	-0.846057	80.487648	-26.800871
377.769989	-60.437748	30.900337	-29.283787
378.216675	-13.255935	95.355797	62.513138
378.663330	-70.375488	105.265907	2.985400
379.109985	-3.327743	43.300961	5.466956
379.556519	-85.285553	75.530823	-1.977887
380.003052	-18.220591	105.265907	-66.539619
380.449524	-25.668562	132.510284	10.429618
380.895996	-40.567074	80.487648	35.237103
381.342377	-20.703142	16.016113	77.385887
381.788727	21.485367	92.878120	60.034100
382.235046	-107.657631	147.365646	-36.733028
382.681274	-23.185801	149.841217	-88.904465
383.127533	-20.703142	162.217361	12.910861
383.573669	-50.501568	92.878120	-44.183216
384.019836	-112.630341	152.316711	45.157028
384.465912	-55.469379	63.136757	69.949905
384.911957	-92.741951	60.657612	79.864204
385.357971	-57.953510	6.091175	-11.905851
385.803925	-30.634268	63.136757	-59.086441
386.249847	-142.475983	85.444061	-4.459755
386.695679	-48.017754	92.878120	-4.459755
387.141541	21.485367	149.841217	40.197273
387.587311	-40.567074	154.791946	-34.249798
388.033051	-13.255935	43.300961	-9.423670
388.478729	-48.017754	152.316711	25.315378
388.924408	-85.285553	58.178493	27.795862
389.369995	-13.255935	127.557602	-31.766806
389.815552	-50.501568	174.591125	-11.905851
390.261078	-72.860260	149.841217	-4.459755
390.706543	-38.083679	174.591125	17.873034
391.152008	-105.171371	144.889954	42.677269
391.597351	-72.860260	162.217361	62.513138
392.042725	-80.315063	100.311127	2.985400
392.487976	-159.893082	186.962387	67.471176
392.933289	-75.345131	172.116547	42.677269
393.378479	1.635659	157.267227	12.910861
393.823639	-13.255935	95.355797	79.864204
394.268768	-18.220591	134.986465	-26.800871
394.713837	-45.534042	159.742416	89.776863
395.158905	-35.600395	177.065598	74.907326
395.603851	41.328434	226.533279	112.074409
396.048798	-77.829971	226.533279	82.342560
396.493683	-28.151295	219.115799	35.237103
396.938568	-18.220591	283.372467	102.165428
397.383392	-3.327743	350.030670	134.363602
397.828156	41.328434	273.491241	87.298820
398.272888	-52.985352	310.537933	139.315582
398.717560	-33.117344	335.223877	77.385887
399.162201	-77.829971	251.252441	102.165428
399.606781	-80.315063	399.361786	129.411072
400.051361	-28.151295	315.475952	213.548187
400.495819	-67.890961	465.898529	141.791504
400.940308	-15.738277	510.218475	228.383896
401.384705	-28.151295	569.264648	176.443161
401.829102	-48.017754	611.057251	248.159348
402.273438	-77.829971	657.735352	297.570374
402.717682	-75.345131	780.418640	213.548187
403.161926	-13.255935	807.379272	314.855042
403.606110	43.808247	765.708374	307.447784
404.050293	-33.117344	897.988525	376.547119
404.494385	-75.345131	961.589722	292.630951
404.938446	-30.634268	1144.738525	435.715454
405.382477	-30.634268	1317.698975	334.603119
405.826447	1.635659	1251.972656	516.983032
406.270386	-3.327743	1485.408936	512.060547
406.714233	-127.551292	1594.589722	635.010803
407.158081	-77.829971	1797.994873	703.763855
407.601868	-85.285553	2005.720703	735.661072
408.045624	-115.116920	2131.074707	816.564209
408.489319	-120.090401	2253.840820	863.101807
408.933014	-0.846057	2556.418701	958.529602
409.376617	-52.985352	2872.336182	1100.211182
409.820190	36.368217	3161.010742	1178.262207
410.263702	-18.220591	3394.194824	1253.795166
410.707184	-75.345131	3766.657471	1419.215576
411.150635	-45.534042	4052.815186	1530.915771
411.594025	-3.327743	4538.267578	1552.751221
412.037384	9.080047	4944.336426	1898.899414
412.480682	16.523497	5491.332031	2002.701416
412.923981	-82.800247	6026.543457	2258.046875
413.367126	-52.985352	6376.651367	2380.635742
413.810333	-25.668562	7161.405762	2579.786133
414.253479	-95.227539	7927.666016	2843.059082
414.696533	-15.738277	8550.695313	3017.373291
415.139587	-75.345131	9395.099609	3338.918701
415.582581	-62.921959	10151.236328	3657.070313
416.025543	-10.773696	10912.516602	3839.448486
416.468414	-38.083679	12068.851563	4295.216309
416.911285	-52.985352	12885.791992	4579.994141
417.354065	-112.630341	14125.038086	4978.887695
417.796875	-77.829971	15020.310547	5404.422852
418.239594	-52.985352	16432.251953	5639.913086
418.682281	-43.050575	17517.318359	6093.275879
419.124908	-3.327743	19275.050781	6616.631836
419.567505	-90.256332	20636.341797	7059.541992
420.010071	-97.713379	22275.308594	7597.276855
420.452545	-77.829971	23935.750000	8004.842285
420.895020	-75.345131	25565.125000	8620.686523
421.337372	-60.437748	27780.083984	9414.896484
421.779785	-80.315063	29223.833984	10116.895508
422.222107	-35.600395	31509.322266	10422.831055
422.664368	-30.634268	33637.738281	11053.020508
423.106628	-20.703142	36261.515625	12052.717773
423.548798	-8.291697	38310.277344	12283.970703
423.990967	-10.773696	40481.570313	13268.125000
424.433044	-57.953510	42902.750000	13815.844727
424.875092	-18.220591	44791.925781	14617.554688
425.317078	-13.255935	47779.175781	15520.185547
425.759064	-65.406403	50041.164063	16287.197266
426.200989	31.407728	52473.273438	17077.212891
426.642853	1.635659	54999.132813	17593.294922
427.084686	19.004484	57628.003906	18655.730469
427.526459	-8.291697	60671.972656	19421.033203
427.968201	-23.185801	62745.023438	20200.001953
428.409912	-30.634268	65863.953125	20738.761719
428.851563	-43.050575	69712.085938	21745.384766
429.293121	-52.985352	71648.703125	22222.011719
429.734711	-87.770821	75444.281250	23571.269531
430.176239	-40.567074	79003.437500	24728.113281
430.617706	41.328434	81627.507813	25119.591797
431.059113	-55.469379	83532.304688	26491.251953
431.500488	-45.534042	83532.304688	27248.373047
431.941833	-43.050575	83532.304688	28649.150391
432.383087	-13.255935	83532.304688	29408.003906
432.824341	-38.083679	83532.304688	30767.900391
433.265533	-45.534042	83532.304688	32395.855469
433.706726	11.561345	83532.304688	33139.988281
434.147827	-20.703142	83532.304688	34012.089844
434.588867	-62.921959	83532.304688	35616.519531
435.029877	-70.375488	83532.304688	37127.078125
435.470825	-20.703142	83532.304688	38696.753906
435.911804	-67.890961	83532.304688	39802.156250
436.352661	-25.668562	83532.304688	41023.746094
436.793518	-25.668562	83532.304688	41707.246094
437.234283	-67.890961	83532.304688	43183.273438
437.675049	-43.050575	83532.304688	44611.042969
438.115723	-18.220591	83532.304688	46021.863281
438.556396	-57.953510	83532.304688	46830.617188
438.997040	-33.117344	83532.304688	47840.546875
439.437561	43.808247	83532.304688	48224.171875
439.878113	-33.117344	83532.304688	49333.707031
440.318573	-67.890961	83532.304688	49474.550781
440.759033	14.042541	83532.304688	49793.750000
441.199341	-25.668562	83532.304688	50463.382813
441.639709	-55.469379	83532.304688	50400.347656
442.079956	-30.634268	83532.304688	50173.632813
442.520264	9.080047	83532.304688	49931.449219
442.960510	-33.117344	83532.304688	50084.738281
443.400604	-30.634268	83532.304688	48350.566406
443.840759	-60.437748	83532.304688	47797.367188
444.280762	56.206322	83532.304688	47433.152344
444.720825	9.080047	83532.304688	45915.644531
445.160767	-120.090401	83532.304688	45152.109375
445.600739	-38.083679	83532.304688	43857.726563
446.040558	-82.800247	83532.304688	42353.679688
446.480438	-48.017754	83532.304688	40300.773438
446.920258	23.966146	83532.304688	39167.042969
447.359955	-65.406403	83532.304688	36960.890625
447.799713	-3.327743	83532.304688	36679.546875
448.239319	-33.117344	83532.304688	34435.597656
448.678955	-18.220591	83532.304688	32764.673828
449.118500	-43.050575	83532.304688	32082.460938
449.558014	-72.860260	83532.304688	29897.675781
449.997498	-65.406403	83532.304688	28222.035156
450.436951	21.485367	81324.593750	26688.767578
450.876343	51.247349	77733.554688	25416.195313
451.315674	36.368217	73873.210938	24383.373047
451.754974	-3.327743	69146.023438	22954.431641
452.194183	-85.285553	66339.609375	21855.162109
452.633392	-55.469379	62890.605469	21045.587891
453.072510	-5.809668	59127.699219	19526.025391
453.511688	-33.117344	56677.636719	18894.031250
453.950684	33.887959	54437.199219	17492.720703
454.389740	-38.083679	51493.699219	17164.701172
454.828735	31.407728	49231.472656	16002.454102
455.267639	-52.985352	47733.410156	15542.119141
455.706543	-45.534042	45103.417969	14808.829102
456.145325	-8.291697	43334.460938	14386.537109
456.584137	-10.773696	41112.832031	13513.436523
457.022858	-38.083679	39346.242188	12938.394531
457.461578	-8.291697	38281.378906	12319.523438
457.900208	-35.600395	36635.804688	12066.067383
458.338867	-60.437748	34855.042969	11517.902344
458.777405	-40.567074	33433.570313	11066.450195
459.215912	23.966146	32358.632813	10577.811523
459.654388	46.288094	31624.970703	10276.689453
460.092773	-35.600395	30011.751953	9814.842773
460.531189	-28.151295	28691.984375	9451.095703
460.969513	-15.738277	27562.246094	9181.641602
461.407806	-13.255935	26281.052734	8679.842773
461.846008	-62.921959	26147.986328	8429.392578
462.284241	-45.534042	24534.164063	8196.741211
462.722351	-52.985352	23600.484375	7805.797363
463.160461	-48.017754	23175.177734	7695.850586
463.598541	-80.315063	22376.421875	7415.983887
464.036530	-43.050575	21570.345703	7280.422852
464.474518	-30.634268	20956.263672	7147.019531
464.912384	-92.741951	20323.156250	6875.183594
465.350281	-112.630341	19861.306641	6612.009277
465.788086	9.080047	18682.513672	6383.014648
466.225891	-45.534042	18512.000000	6257.930664
466.663605	-115.116920	18214.703125	6130.400879
467.101318	-5.809668	17504.201172	5993.448730
467.539001	-48.017754	17160.875000	5767.955566
467.976563	-70.375488	16944.328125	5607.298828
468.414124	-43.050575	16662.076172	5546.705078
468.851593	-45.534042	16173.870117	5259.633301
469.289063	-5.809668	16062.156250	5392.752930
469.726440	-95.227539	15884.679688	5107.646484
470.163849	-92.741951	15163.047852	5149.755371
470.601135	-38.083679	15683.016602	5004.651367
471.038422	4.117270	15428.606445	5025.725586
471.475677	-87.770821	15015.916016	4854.675781
471.912811	-55.469379	14688.475586	4812.459961
472.350006	11.561345	14877.509766	4793.692383
472.787048	-25.668562	14754.431641	4976.545410
473.224121	-20.703142	14281.419922	4781.960938
473.661072	-43.050575	14393.694336	4810.114258
474.098053	-5.809668	14074.359375	4749.106934
474.534943	-0.846057	14380.488281	4671.628418
474.971802	-50.501568	14078.766602	4615.246582
475.408630	19.004484	14332.059570	4598.797363
475.845367	-20.703142	13961.949219	4704.504395
476.282104	-35.600395	14219.759766	4603.497559
476.718750	-38.083679	14131.648438	4452.992676
477.155426	-70.375488	14470.718750	4610.547363
477.591949	1.635659	14435.509766	4704.504395
478.028503	-52.985352	14083.173828	4817.150879
478.464966	-15.738277	14413.501953	4669.279785
478.901428	-18.220591	14486.121094	4610.547363
479.337860	-25.668562	14497.122070	4655.187012
479.774170	-90.256332	14772.016602	4819.497559
480.210510	-8.291697	14582.916992	4608.196777
480.646698	-30.634268	14866.522461	4910.939453
481.082947	-33.117344	14892.891602	4789.000488
481.519073	-15.738277	14908.271484	4598.797363
481.955200	-102.685356	15250.857422	4943.747070
482.391266	-87.770821	15788.243164	5074.885254
482.827301	-0.846057	16007.386719	5098.287109
483.263306	-45.534042	16189.202148	5077.225586
483.699188	-112.630341	16228.620117	5308.694336
484.135101	-95.227539	16427.873047	5282.998535
484.570923	-40.567074	16889.636719	5423.092773
485.006744	-125.064178	17534.810547	5476.751953
485.442413	-110.144005	17851.822266	5637.583008
485.878174	6.598778	17948.009766	5879.592773
486.313782	-25.668562	18391.767578	5963.251953
486.749390	4.117270	19036.699219	5921.429688
487.184998	-105.171371	19522.199219	6155.917480
487.620453	23.966146	20224.634766	6475.588867
488.055939	-45.534042	20761.222656	6394.589844
488.491333	-30.634268	21278.566406	6912.077637
488.926727	-100.199310	22097.318359	6939.739746
489.362030	-20.703142	22499.546875	6978.918945
489.797302	-38.083679	23624.736328	7399.908691
490.232513	-90.256332	24772.886719	7441.243164
490.667755	-25.668562	25142.275391	7737.090820
491.102905	1.635659	26567.257813	8130.522461
491.537964	-40.567074	27133.416016	8559.228516
491.973022	-87.770821	28238.164063	8750.340820
492.407990	-38.083679	29059.146484	8945.727539
492.842957	-10.773696	30305.552734	9226.963867
493.277832	-97.713379	31822.892578	9568.679688
493.712738	21.485367	32871.843750	9983.979492
494.147491	-82.800247	33899.523438	10215.943359
494.582275	-65.406403	34992.417969	10382.375000
495.017029	-60.437748	36429.828125	10804.388672
495.451660	-8.291697	37837.234375	11337.022461
495.886292	-28.151295	39491.531250	11774.373047
496.320831	-52.985352	40371.140625	12043.817383
496.755402	-60.437748	42075.082031	12514.935547
497.189850	-70.375488	43568.371094	12953.897461
497.624298	-130.038391	44860.375000	13347.716797
498.058655	-147.451706	46595.347656	13725.383789
498.493042	-70.375488	48384.335938	14029.728516
498.927368	-100.199310	50052.972656	14558.167969
499.361572	-3.327743	51008.511719	15087.838867
499.795807	-43.050575	53497.304688	15706.580078
500.229919	-33.117344	54889.281250	16065.987305
500.664063	-60.437748	56485.035156	16225.880859
501.098083	-95.227539	57611.578125	16913.150391
501.532104	-30.634268	59710.984375	17634.837891
501.966064	-70.375488	61573.316406	18137.644531
502.399994	-65.406403	62371.964844	18347.498047
502.833893	14.042541	65160.769531	19042.708984
503.267700	-52.985352	66401.671875	19705.408203
503.701477	-33.117344	68860.078125	20024.888672
504.135193	-57.953510	69923.429688	20797.921875
504.568909	-122.577171	72508.460938	21155.208984
505.002502	-67.890961	74016.593750	21468.859375
505.436127	-67.890961	75838.851563	22356.085938
505.869629	-72.860260	77276.421875	22890.597656
506.303162	-35.600395	78951.687500	23207.664063
506.736603	-52.985352	81128.054688	23893.271484
507.169983	-43.050575	83379.375000	24487.207031
507.603363	-5.809668	83532.304688	24885.103516
508.036621	-75.345131	83532.304688	25650.955078
508.469940	-28.151295	83532.304688	25819.345703
508.903107	-5.809668	83532.304688	26737.603516
509.336304	-60.437748	83532.304688	26957.406250
509.769379	-35.600395	83532.304688	27548.353516
510.202484	-13.255935	83532.304688	28313.230469
510.635529	-52.985352	83532.304688	28724.800781
511.068481	-35.600395	83532.304688	29572.708984
511.501434	-18.220591	83532.304688	30144.740234
511.934265	-23.185801	83532.304688	30187.029297
512.367126	-82.800247	83532.304688	30787.927734
512.799927	-72.860260	83532.304688	30994.869141
513.232605	-92.741951	83532.304688	30899.189453
513.665344	-82.800247	83532.304688	31880.142578
514.097961	-38.083679	83532.304688	32304.736328
514.530579	-28.151295	83532.304688	32886.835938
514.963135	-33.117344	83532.304688	33688.214844
515.395691	-33.117344	83532.304688	33987.687500
515.828064	-90.256332	83532.304688	34185.066406
516.260498	-80.315063	83532.304688	34810.167969
516.692871	-60.437748	83532.304688	35142.511719
517.125183	-33.117344	83532.304688	35505.785156
517.557373	-35.600395	83532.304688	35999.648438
517.989624	6.598778	83532.304688	35813.625000
518.421753	-82.800247	83532.304688	36823.531250
518.853943	-65.406403	83532.304688	37073.890625
519.286072	-30.634268	83532.304688	37656.957031
519.718018	-28.151295	83532.304688	37570.449219
520.150024	-62.921959	83532.304688	37670.265625
520.581909	-57.953510	83532.304688	38007.601563
521.013855	31.407728	83532.304688	38360.839844
521.445679	-15.738277	83532.304688	38877.156250
521.877502	-8.291697	83532.304688	39091.179688
522.309204	-67.890961	83532.304688	38792.503906
522.740906	-23.185801	83532.304688	39347.906250
523.172546	-55.469379	83532.304688	39912.031250
523.604187	26.446688	83532.304688	40206.269531
524.035767	-20.703142	83532.304688	39977.101563
524.467224	-40.567074	83532.304688	39737.171875
524.898682	-80.315063	83532.304688	40042.214844
525.330078	4.117270	83532.304688	40287.261719
525.761475	1.635659	83532.304688	40557.699219
526.192749	-100.199310	83532.304688	40765.539063
526.624023	-40.567074	83532.304688	40535.136719
527.055237	-8.291697	83532.304688	41066.855469
527.486389	-28.151295	83532.304688	40971.589844
527.917542	-28.151295	83532.304688	41023.746094
528.348572	-62.921959	83532.304688	40899.078125
528.779663	-43.050575	83532.304688	41312.339844
529.210571	-50.501568	83532.304688	41686.644531
529.641541	-92.741951	83532.304688	40892.285156
530.072388	-85.285553	83532.304688	41091.820313
530.503235	-15.738277	83532.304688	41387.503906
530.934082	-33.117344	83532.304688	41262.273438
531.364746	-3.327743	83532.304688	41319.171875
531.795532	-30.634268	83532.304688	41817.203125
532.226135	-28.151295	83532.304688	41782.824219
532.656738	-57.953510	83532.304688	41496.968750
533.087280	-18.220591	83532.304688	41725.558594
533.517822	-102.685356	83532.304688	41874.550781
533.948242	-70.375488	83532.304688	41312.339844
534.378662	-35.600395	83532.304688	41053.238281
534.809082	-8.291697	83532.304688	41847.019531
535.239319	-77.829971	83532.304688	41613.457031
535.669617	-23.185801	83532.304688	42023.882813
536.099792	-100.199310	83532.304688	41682.070313
536.529968	-25.668562	83532.304688	41652.332031
536.960083	-38.083679	83532.304688	41503.820313
537.390137	-82.800247	83532.304688	41707.246094
537.820190	-43.050575	83532.304688	41364.722656
538.250183	1.635659	83532.304688	41401.179688
538.680115	-10.773696	83532.304688	41652.332031
539.109985	-50.501568	83532.304688	41753.039063
539.539795	-13.255935	83532.304688	41835.550781
539.969543	-5.809668	83532.304688	41538.062500
540.399292	-72.860260	83532.304688	41216.785156
540.828979	-97.713379	83532.304688	41679.781250
541.258606	-80.315063	83532.304688	41278.199219
541.688171	-38.083679	83532.304688	41250.898438
542.117737	19.004484	83532.304688	41280.476563
542.547302	-57.953510	83532.304688	40645.746094
542.976685	-25.668562	83532.304688	41323.726563
543.406128	-127.551292	83532.304688	41125.886719
543.835388	-15.738277	83532.304688	41496.968750
544.264771	-13.255935	83532.304688	40666.078125
544.693970	-40.567074	83532.304688	40559.953125
545.123230	-62.921959	83532.304688	41182.687500
545.552307	-3.327743	83532.304688	41278.199219
545.981506	31.407728	83532.304688	40704.496094
546.410583	-38.083679	83532.304688	40967.054688
546.839539	-8.291697	83532.304688	40835.675781
547.268555	-80.315063	83532.304688	40602.843750
547.697449	61.164749	83532.304688	40390.847656
548.126282	-45.534042	83532.304688	40215.269531
548.555054	-25.668562	83532.304688	40616.390625
548.983887	-10.773696	83532.304688	39918.761719
549.412598	-0.846057	83532.304688	40325.535156
549.841309	-43.050575	83532.304688	40255.761719
550.269958	14.042541	83532.304688	40039.964844
550.698486	-8.291697	83532.304688	39990.570313
551.127075	-90.256332	83532.304688	39849.230469
551.555481	-107.657631	83532.304688	40071.410156
551.983948	-117.603607	83532.304688	39484.253906
552.412292	1.635659	83532.304688	39475.312500
552.840698	1.635659	83532.304688	39477.546875
553.268860	-35.600395	83532.304688	39493.199219
553.697205	-20.703142	83532.304688	39486.492188
554.125366	-97.713379	83532.304688	39876.144531
554.553467	-52.985352	83532.304688	39795.429688
554.981628	-20.703142	83532.304688	39184.894531
555.409607	23.966146	83532.304688	39663.265625
555.837646	-43.050575	83532.304688	39690.136719
556.265564	14.042541	83532.304688	39323.332031
556.693481	-45.534042	83532.304688	39770.777344
557.121338	-33.117344	83532.304688	39795.429688
557.549133	-82.800247	83532.304688	39694.613281
557.976929	-72.860260	83532.304688	39873.898438
558.404602	-30.634268	83532.304688	39690.136719
558.832275	-8.291697	83532.304688	39309.933594
559.259888	-120.090401	83532.304688	39435.066406
559.687439	-35.600395	83532.304688	39374.722656
560.114929	-100.199310	83532.304688	39356.847656
560.542419	-23.185801	83532.304688	39672.222656
560.969788	-85.285553	83532.304688	39683.414063
561.397156	-75.345131	83532.304688	39365.785156
561.824524	-38.083679	83532.304688	38834.824219
562.251770	-40.567074	83532.304688	39294.296875
562.679016	-3.327743	83532.304688	39245.167969
563.106140	-55.469379	83532.304688	38558.773438
563.533264	-72.860260	83532.304688	38872.703125
563.960327	-72.860260	83532.304688	38487.589844
564.387329	-28.151295	83532.304688	37914.359375
564.814331	-33.117344	83532.304688	37927.675781
565.241272	-23.185801	83532.304688	37583.761719
565.668213	-107.657631	83532.304688	37681.359375
566.094971	-40.567074	83532.304688	37335.421875
566.521790	-77.829971	83532.304688	37029.574219
566.948425	-10.773696	83532.304688	36533.363281
567.375183	-65.406403	83532.304688	36732.707031
567.801819	-5.809668	83532.304688	36409.339844
568.228394	-30.634268	83532.304688	36314.113281
568.654846	-30.634268	83532.304688	35924.351563
569.081421	-87.770821	83532.304688	35452.628906
569.507874	-18.220591	83532.304688	35554.511719
569.934265	-23.185801	83532.304688	35295.363281
570.360596	-67.890961	83532.304688	35045.031250
570.786865	-10.773696	83532.304688	34298.148438
571.213074	-43.050575	83532.304688	33974.382813
571.639282	-48.017754	83532.304688	34058.660156
572.065430	-43.050575	83532.304688	33887.878906
572.491516	56.206322	83532.304688	34185.066406
572.917603	6.598778	83532.304688	33552.855469
573.343567	-52.985352	83532.304688	33568.390625
573.769531	21.485367	83532.304688	32873.511719
574.195435	-43.050575	83532.304688	32940.136719
574.621277	-43.050575	83532.304688	32633.605469
575.047119	-62.921959	83532.304688	32498.072266
575.472839	1.635659	83532.304688	32451.406250
575.898560	-60.437748	83532.304688	32486.960938
576.324158	-70.375488	83532.304688	32262.507813
576.749817	-72.860260	83532.304688	32006.875000
577.175293	-3.327743	83532.304688	31559.919922
577.600830	-65.406403	83532.304688	30968.167969
578.026306	-67.890961	83532.304688	31066.068359
578.451721	-25.668562	83532.304688	30974.841797
578.877136	-18.220591	83532.304688	30930.341797
579.302429	-67.890961	83532.304688	30498.621094
579.727661	-50.501568	83532.304688	30738.972656
580.152832	-60.437748	83532.304688	30220.416016
580.578064	1.635659	83532.304688	30142.513672
581.003113	-92.741951	83532.304688	29890.998047
581.428223	-65.406403	83532.304688	29287.816406
581.853271	-25.668562	83532.304688	29365.714844
582.278198	-70.375488	83532.304688	29256.658203
582.703125	-50.501568	83532.304688	29087.517578
583.127930	-52.985352	83532.304688	29223.273438
583.552795	-43.050575	83532.304688	28936.191406
583.977539	-23.185801	83532.304688	28197.572266
584.402283	-40.567074	83532.304688	28239.830078
584.826965	-80.315063	83532.304688	28484.517578
585.251587	-45.534042	83532.304688	28150.865234
585.676208	-5.809668	83532.304688	28266.521484
586.100647	-67.890961	83532.304688	27879.572266
586.525208	-8.291697	83532.304688	27757.296875
586.949524	-3.327743	83532.304688	27497.236328
587.373962	-25.668562	83532.304688	27632.812500
587.798218	-97.713379	83532.304688	27457.234375
588.222534	-5.809668	83532.304688	26952.964844
588.646729	-117.603607	83249.445313	27021.806641
589.070984	-52.985352	82083.031250	26686.546875
589.495117	-45.534042	81506.281250	26453.531250
589.919128	-38.083679	81279.234375	26389.191406
590.343201	-77.829971	80299.992188	26085.343750
590.767151	-8.291697	79955.531250	25910.214844
591.191101	-35.600395	78870.359375	26027.699219
591.614990	-45.534042	78656.406250	25642.095703
592.038818	-5.809668	77290.898438	25433.908203
592.462524	-57.953510	77103.093750	25329.851563
592.886292	-30.634268	76657.343750	24865.201172
593.310059	-50.501568	76207.601563	24619.796875
593.733582	4.117270	75725.835938	25017.818359
594.157227	-3.327743	74815.867188	24149.289063
594.580750	-3.327743	74531.984375	24489.417969
595.004272	-40.567074	73750.625000	24208.902344
595.427673	4.117270	73263.343750	23774.146484
595.851074	28.927261	72224.414063	23445.623047
596.274353	-80.315063	72178.343750	23480.886719
596.697632	-62.921959	70799.289063	23705.773438
597.120911	-100.199310	70142.179688	23414.767578
597.544067	-80.315063	69917.203125	23099.746094
597.967224	41.328434	69201.015625	22839.974609
598.390320	-179.804886	68757.179688	22820.167969
598.813354	-45.534042	68276.851563	22450.621094
599.236328	-52.985352	67335.171875	22452.818359
599.659241	-57.953510	66373.429688	22057.222656
600.082153	21.485367	66537.476563	22063.814453
600.505005	-50.501568	65499.417969	21622.464844
600.927795	-67.890961	64831.132813	21530.296875
601.350525	-25.668562	64809.644531	21503.964844
601.773254	-8.291697	64135.031250	21242.925781
602.195862	-45.534042	63429.136719	21030.242188
602.618408	-35.600395	62560.351563	20905.302734
603.040955	-52.985352	62755.031250	20771.628906
603.463440	-87.770821	61630.964844	20478.083984
603.885925	-18.220591	61353.437500	20653.316406
604.308350	31.407728	60662.687500	20140.896484
604.730652	-3.327743	60257.695313	20248.166016
605.152893	-13.255935	59532.800781	19939.535156
605.575195	-52.985352	59245.906250	19873.886719
605.997375	-57.953510	58660.367188	19379.478516
606.419495	6.598778	57884.078125	19515.087891
606.841553	-5.809668	57554.164063	19390.414063
607.263672	-100.199310	57172.238281	19058.015625
607.685608	-38.083679	57180.292969	19230.763672
608.107605	-45.534042	56808.265625	18854.677734
608.529480	-50.501568	55878.378906	18896.216797
608.951294	33.887959	55179.707031	18778.156250
609.373108	-95.227539	55224.140625	18754.109375
609.794800	4.117270	55124.281250	18434.939453
610.216553	-52.985352	54401.414063	18380.289063
610.638123	-60.437748	54255.292969	18397.777344
611.059753	-82.800247	54096.003906	17956.205078
611.481262	-50.501568	53483.570313	17919.041016
611.902832	-40.567074	52920.800781	17785.687500
612.324219	-60.437748	53021.476563	17641.394531
612.745605	-105.171371	52496.261719	17652.326172
613.166931	-85.285553	51562.957031	17632.650391
613.588196	-33.117344	51957.324219	17492.720703
614.009460	-25.668562	51017.746094	17125.332031
614.430664	-43.050575	50620.960938	17029.091797
614.851807	-60.437748	50506.257813	17081.585938
615.272827	-102.685356	50177.343750	16823.451172
615.693909	-57.953510	49483.921875	16482.050781
616.114929	-10.773696	48823.941406	16482.050781
616.535889	-35.600395	48717.503906	16486.427734
616.956787	-60.437748	48060.917969	16140.464844
617.377563	-18.220591	47137.496094	16011.216797
617.798340	-139.988220	47032.429688	15932.337891
618.219055	-20.703142	46335.703125	15897.276367
618.639832	-60.437748	46256.464844	15384.173828
619.060364	4.117270	44973.101563	15357.841797
619.481018	-28.151295	44679.769531	15004.380859
619.901611	-40.567074	44241.628906	14767.067383
620.322083	-40.567074	43724.996094	14687.923828
620.742493	-77.829971	43010.324219	14454.762695
621.162842	11.561345	42294.164063	14098.043945
621.583191	-57.953510	42174.144531	14159.732422
622.003418	43.808247	41278.769531	13754.070313
622.423706	-15.738277	40820.402344	13727.590820
622.843872	-97.713379	40123.656250	13564.233398
623.264038	-75.345131	39538.496094	13228.320313
623.684143	-45.534042	38775.246094	13108.857422
624.104126	-15.738277	38265.824219	12973.827148
624.524170	-75.345131	37746.257813	12852.002930
624.944031	21.485367	37061.152344	12435.019531
625.364014	-82.800247	36715.546875	12499.399414
625.783752	-122.577171	36210.582031	12175.052734
626.203552	-52.985352	35455.402344	12175.052734
626.623230	-112.630341	35194.023438	12061.618164
627.042969	-110.144005	34874.984375	11801.113281
627.462585	-20.703142	34088.050781	11665.140625
627.882141	-43.050575	33613.332031	11537.987305
628.301697	-23.185801	33280.410156	11281.155273
628.721130	-52.985352	32565.289063	11155.945313
629.140625	-25.668562	32578.619141	11006.012695
629.559998	-0.846057	31929.619141	10790.937500
629.979309	-45.534042	31226.812500	10770.758789
630.398560	-62.921959	30886.396484	10559.851563
630.817810	-70.375488	30303.326172	10413.841797
631.237000	-40.567074	30394.578125	10580.056641
631.656067	6.598778	30025.105469	10245.194336
632.075195	21.485367	29145.939453	10074.105469
632.494202	-38.083679	28987.933594	9690.684570
632.913208	-77.829971	28651.935547	9891.541992
633.332092	-23.185801	28080.257813	9579.980469
633.750977	-8.291697	28184.785156	9408.108398
634.169739	-15.738277	27695.609375	9729.072266
634.588562	-10.773696	26824.738281	9124.967773
635.007263	4.117270	26926.875000	9136.304688
635.425964	-100.199310	26283.269531	9045.585938
635.844543	16.523497	25848.712891	8848.068359
636.263123	-30.634268	25545.191406	8929.833984
636.681641	-48.017754	25700.250000	8718.506836
637.100037	-60.437748	25204.238281	8449.901367
637.518494	-28.151295	24929.892578	8536.459961
637.936829	33.887959	24344.169922	8438.507813
638.355164	-72.860260	24127.765625	8310.836914
638.773438	-25.668562	23891.621094	8217.286133
639.191650	-28.151295	23454.992188	7947.676270
639.609863	-60.437748	23587.253906	8018.559570
640.027893	-10.773696	22847.130859	7856.158691
640.445984	-33.117344	22378.621094	7723.345703
640.863953	-18.220591	22455.570313	7856.158691
641.281921	-13.255935	22123.683594	7711.890137
641.699829	-43.050575	21684.474609	7356.263184
642.117676	-40.567074	21576.929688	7539.933594
642.535461	-75.345131	21397.011719	7243.635742
642.953247	-70.375488	20945.304688	7156.224121
643.370972	-5.809668	20741.501953	7245.935547
643.788635	-25.668562	20553.103516	7126.307617
644.206177	-57.953510	20393.226563	6988.135254
644.623718	-28.151295	20001.365234	6923.604004
645.041260	-107.657631	19896.318359	6704.414063
645.458618	-127.551292	19086.990234	6819.824219
645.876099	-28.151295	19270.677734	6602.764648
646.293396	33.887959	18752.472656	6554.222168
646.710693	21.485367	18721.865234	6445.509766
647.127991	-117.603607	18324.001953	6494.094238
647.545166	-75.345131	18267.166016	6223.162598
647.962341	-0.846057	18142.566406	6376.068359
648.379333	63.643875	17939.265625	5949.312988
648.796448	4.117270	17655.062500	6049.176270
649.213379	-107.657631	17243.982422	6081.672363
649.630310	-33.117344	17114.945313	5888.891113
650.047180	-23.185801	16804.310547	5895.863770
650.463989	-35.600395	16718.970703	5798.200684
650.880859	21.485367	16373.141602	5728.394043
651.297546	-43.050575	16125.681641	5758.648926
651.714233	-70.375488	15961.375000	5490.745117
652.130859	-28.151295	15882.488281	5488.413574
652.547485	-105.171371	15428.606445	5376.413086
652.963928	-48.017754	15558.024414	5390.418945
653.380432	-82.800247	15490.028320	5514.064941
653.796814	-28.151295	15134.504883	5154.432617
654.213196	-5.809668	14835.755859	5252.622559
654.629578	-62.921959	14800.590820	4995.283691
655.045837	-87.770821	14389.291992	4957.804688
655.462036	-50.501568	14228.568359	4875.778320
655.878174	-62.921959	14074.359375	4810.114258
656.294312	-110.144005	13814.193359	4671.628418
656.710327	4.117270	13990.606445	4688.067871
657.126404	-40.567074	13675.177734	4671.628418
657.542358	-38.083679	13447.719727	4695.111816
657.958252	6.598778	13087.284180	4629.344238
658.374084	-65.406403	13093.923828	4361.180176
658.789917	-48.017754	12903.513672	4358.824707
659.205688	-43.050575	12673.011719	4549.432617
659.621338	-67.890961	12526.591797	4257.504395
660.037048	-62.921959	12684.099609	4403.564453
660.452637	-13.255935	12253.416992	4285.789063
660.868164	-92.741951	12004.321289	4210.347168
661.283691	-62.921959	11723.670898	4047.497803
661.699158	-110.144005	11627.789063	4023.875732
662.114502	-40.567074	11543.011719	4007.337402
662.529846	-139.988220	11413.533203	4080.559326
662.945129	-57.953510	11102.817383	3796.842773
663.360413	-5.809668	10916.997070	3775.533936
663.775635	-43.050575	10787.017578	3742.377686
664.190674	-52.985352	10551.435547	3811.046631
664.605835	-92.741951	10854.261719	3711.580322
665.020813	-15.738277	10461.594727	3711.580322
665.435791	-10.773696	10508.767578	3713.949463
665.850769	-3.327743	10157.989258	3657.070313
666.265625	-72.860260	9925.933594	3569.320801
666.680420	-62.921959	9874.066406	3517.110107
667.095215	-62.921959	9948.480469	3400.726807
667.509949	-67.890961	9487.854492	3502.865967
667.924622	-28.151295	9474.285156	3319.893066
668.339233	1.635659	9401.888672	3250.894775
668.753784	-117.603607	9492.377930	3208.044189
669.168335	-67.890961	9028.006836	3131.820557
669.582825	-35.600395	8962.189453	3072.229248
669.997192	-45.534042	8862.271484	3045.997559
670.411560	-0.846057	8807.740234	3007.830322
670.825867	-95.227539	8612.157227	2912.344727
671.240173	-43.050575	8363.861328	3005.444092
671.654358	-62.921959	8416.291992	2905.179688
672.068481	-80.315063	8270.347656	2790.463623
672.482605	-77.829971	8115.108398	2713.908691
672.896667	-48.017754	7863.600586	2747.409180
673.310669	-18.220591	7877.332520	2795.246338
673.724609	-65.406403	7593.268066	2668.424561
674.138489	-97.713379	7671.218262	2819.155762
674.552307	-67.890961	7354.543457	2488.663330
674.966064	36.368217	7453.300293	2443.067627
675.379822	-95.227539	7214.317383	2431.064697
675.793579	51.247349	7108.472168	2543.827637
676.207153	-105.171371	7000.234863	2404.653076
676.620789	-45.534042	6977.194336	2383.037842
677.034241	-132.525726	6981.802246	2366.222412
677.447754	-52.985352	6797.331055	2318.160645
677.861206	-65.406403	6799.639160	2207.519287
678.274597	4.117270	6538.618652	2255.641357
678.687866	-15.738277	6436.834961	2238.801758
679.101135	-35.600395	6441.463379	2236.395752
679.514404	-23.185801	6226.063965	2159.370605
679.927551	-13.255935	6114.743652	2113.604492
680.340698	41.328434	5963.836914	2156.962646
680.753723	-23.185801	6024.221680	2079.866699
681.166748	-30.634268	5942.927246	2067.814209
681.579712	-50.501568	5861.578125	1997.876221
681.992615	-57.953510	5784.828125	2031.646606
682.405457	-18.220591	5621.862793	1956.851318
682.818298	11.561345	5500.660645	1993.051025
683.231018	-65.406403	5468.007813	1949.609497
683.643738	-0.846057	5393.339355	2007.526367
684.056335	-122.577171	5430.679688	1811.895996
684.468994	38.848377	5246.199707	1816.731812
684.881531	-30.634268	4974.792480	1717.537842
685.293945	-82.800247	5115.253906	1722.379395
685.706482	-57.953510	5045.044434	1732.061523
686.118774	-18.220591	5007.582031	1729.641357
686.531128	-48.017754	4730.919922	1579.431274
686.943481	-30.634268	4831.814941	1736.902222
687.355713	-28.151295	4611.138672	1703.011475
687.767883	-110.144005	4622.887207	1666.683960
688.179932	-8.291697	4514.750977	1589.130615
688.592041	-18.220591	4531.213379	1499.364380
689.004089	-25.668562	4455.937500	1419.215576
689.416016	-5.809668	4507.695313	1511.501221
689.827881	-110.144005	4486.524902	1407.064575
690.239868	-30.634268	4201.506348	1504.219238
690.651611	-95.227539	4154.325195	1506.646606
691.063354	-82.800247	4043.368164	1448.370117
691.475098	-38.083679	4104.762695	1287.881958
691.886719	-62.921959	3967.757568	1314.653442
692.298340	-55.469379	3884.997559	1278.144531
692.709900	16.523497	3875.534912	1285.447632
693.121460	-137.500702	3884.997559	1365.736450
693.532837	-0.846057	3728.760498	1348.712646
693.944214	-48.017754	3707.437256	1307.353149
694.355652	-8.291697	3660.037109	1326.819336
694.766846	-5.809668	3548.562012	1341.415649
695.178101	9.080047	3565.172363	1263.536011
695.589294	-25.668562	3425.086914	1222.129395
696.000366	6.598778	3425.086914	1180.699707
696.411438	-25.668562	3382.310547	1153.880127
696.822510	-97.713379	3313.355713	1085.567383
697.233459	-65.406403	3261.013672	1109.972168
697.644409	-38.083679	3256.253662	1124.611084
698.055298	-25.668562	3196.737305	1153.880127
698.466064	26.446688	3253.873535	1129.490112
698.876831	-43.050575	3108.587891	1100.211182
699.287537	-80.315063	3051.367432	1039.175781
699.698181	9.080047	3158.628418	1097.770630
700.108826	-52.985352	2984.567871	1078.244507
700.519348	-45.534042	2979.794678	1124.611084
700.929810	-20.703142	2872.336182	934.073120
701.340271	-0.846057	2855.609619	1029.405151
701.750732	-28.151295	2884.281982	970.754517
702.161011	-67.890961	2743.225830	882.687256
702.571350	-40.567074	2826.928711	924.288391
702.981567	-43.050575	2642.684082	1012.303589
703.391724	-40.567074	2690.574219	867.998718
703.801880	-77.829971	2604.353516	740.567139
704.211914	-147.451706	2577.992188	850.858093
704.621948	-80.315063	2477.269775	921.841919
705.031921	-70.375488	2448.471680	860.653442
705.441895	-55.469379	2470.071289	907.161560
705.851746	-13.255935	2496.463867	765.091370
706.261536	-97.713379	2450.872314	877.791626
706.671265	-117.603607	2381.240234	836.162842
707.081055	-67.890961	2325.976074	823.914429
707.490662	-102.685356	2227.376465	855.755920
707.900330	36.368217	2316.361572	801.861633
708.309814	-3.327743	2220.157471	821.464478
708.719299	-87.770821	2133.483643	750.377808
709.128784	-8.291697	2075.652344	725.848267
709.538147	-120.090401	2162.384521	720.941162
709.947510	-65.406403	2155.160156	639.924133
710.356750	-72.860260	2174.423584	750.377808
710.766052	-28.151295	1962.285889	738.114136
711.175171	31.407728	2025.017944	664.484924
711.584290	6.598778	2044.310791	713.579834
711.993347	-5.809668	1923.658325	681.672180
712.402405	-13.255935	1918.828857	664.484924
712.811401	-92.741951	1814.922241	662.029175
713.220276	-30.634268	1856.016968	630.097046
713.629150	-25.668562	1839.098022	691.491760
714.037964	-77.829971	1834.263550	534.208618
714.446777	-5.809668	1870.516113	615.354065
714.855408	-90.256332	1725.408936	598.149658
715.264099	-80.315063	1715.725952	600.607788
715.672668	9.080047	1710.884033	588.316711
716.081177	-33.117344	1618.831787	509.599182
716.489746	-67.890961	1584.891113	509.599182
716.898132	1.635659	1606.711548	492.367126
717.306519	-65.406403	1618.831787	531.748047
717.714844	-75.345131	1543.657593	593.233215
718.123108	-97.713379	1538.805054	544.049683
718.531372	-75.345131	1507.257080	418.463715
718.939514	-72.860260	1587.315918	445.571411
719.347595	-125.064178	1507.257080	443.107483
719.755676	-62.921959	1468.411499	509.599182
720.163696	-33.117344	1295.796509	516.983032
720.571716	-87.770821	1485.408936	438.179657
720.979614	-50.501568	1303.098145	502.214722
721.387451	-72.860260	1427.116455	428.322296
721.795227	-20.703142	1356.620850	504.676392
722.202942	-115.116920	1320.132324	415.998779
722.610718	4.117270	1320.132324	484.980713
723.018311	-72.860260	1380.937134	371.613861
723.425903	-45.534042	1305.531494	477.593201
723.833374	-48.017754	1271.452881	415.998779
724.240906	38.848377	1154.493408	477.593201
724.648376	-90.256332	1200.812134	480.055786
725.055725	23.966146	1166.685547	492.367126
725.463013	-28.151295	1069.093384	366.680511
725.870300	-28.151295	1047.117065	448.035217
726.277466	-20.703142	1083.740601	428.322296
726.684631	4.117270	1047.117065	359.279358
727.091797	-40.567074	990.924866	371.613861
727.498779	-67.890961	1095.944214	391.344269
727.905823	-48.017754	1073.975952	425.857727
728.312805	-35.600395	1071.534668	258.044586
728.719666	-50.501568	1044.674805	334.603119
729.126526	-60.437748	1103.265259	472.667999
729.533264	-28.151295	1032.462524	290.161102
729.940063	-13.255935	1069.093384	337.071259
730.346680	-8.291697	956.699280	295.100739
730.753357	-55.469379	929.796265	376.547119
731.159851	-162.381714	927.349976	248.159348
731.566406	-40.567074	1010.474976	300.039948
731.972900	-23.185801	868.614441	295.100739
732.379272	-45.534042	819.630554	337.071259
732.785645	-8.291697	990.924866	260.515717
733.191895	9.080047	951.808472	258.044586
733.598206	-18.220591	871.062805	327.198212
734.004333	-72.860260	875.959229	287.691162
734.410522	-87.770821	883.303223	267.928406
734.816528	-10.773696	851.473999	282.751221
735.222656	-82.800247	787.772461	253.102173
735.628662	-13.255935	836.778870	314.855042
736.034546	-100.199310	844.126953	243.216019
736.440430	-57.953510	856.371826	191.287811
736.846252	-45.534042	807.379272	248.159348
737.252014	-95.227539	765.708374	193.761612
737.657715	-62.921959	839.228333	250.630737
738.063354	-43.050575	819.630554	292.630951
738.468933	-33.117344	775.515442	238.272400
738.874512	-75.345131	841.677673	342.006897
739.280029	-43.050575	792.674744	258.044586
739.685486	-45.534042	777.967102	206.128860
740.090881	11.561345	804.928650	250.630737
740.496216	-15.738277	721.558228	255.573502
740.901550	-62.921959	863.717834	233.328278
741.306702	-48.017754	765.708374	277.810608
741.711914	-100.199310	807.379272	240.744202
742.117004	14.042541	709.289368	248.159348
742.522095	28.927261	687.199585	176.443161
742.927124	-50.501568	660.191284	186.340042
743.332031	19.004484	598.767883	211.075180
743.737000	-70.375488	748.542297	253.102173
744.141785	21.485367	606.141785	238.272400
744.546631	-48.017754	652.823364	154.169418
744.951355	-10.773696	697.018250	265.457550
745.356079	-18.220591	569.264648	255.573502
745.760620	-65.406403	586.476501	235.800400
746.165283	-3.327743	556.967773	181.391724
746.569824	-75.345131	559.427368	191.287811
746.974243	-0.846057	524.984985	149.218506
747.378723	-15.738277	547.128662	183.865936
747.783020	-117.603607	576.641785	166.544678
748.187378	-20.703142	581.559204	216.020966
748.591614	-25.668562	549.588379	228.383896
748.995850	-100.199310	507.757019	206.128860
749.399963	-80.315063	615.972107	151.694000
749.804077	-48.017754	502.833832	173.968643
750.208130	-33.117344	497.910278	196.235306
750.612122	-45.534042	495.448608	89.776863
751.016052	-25.668562	515.140869	159.119797
751.419922	28.927261	490.524475	186.340042
751.823792	-23.185801	488.062286	151.694000
752.227478	61.164749	473.287384	198.708786
752.631226	-82.800247	542.208435	124.458260
753.034851	-167.359161	384.566498	114.551308
753.438477	-60.437748	424.013184	64.992210
753.842102	-33.117344	527.445801	144.267319
754.245544	-72.860260	480.675110	126.934784
754.648987	1.635659	414.153656	97.210258
755.052368	16.523497	436.335205	126.934784
755.455750	-52.985352	421.548431	114.551308
755.859009	31.407728	377.167694	129.411072
756.262268	-52.985352	409.223602	114.551308
756.665405	-38.083679	320.413574	67.471176
757.068542	-13.255935	327.819031	104.642723
757.471680	-33.117344	354.965576	134.363602
757.874634	-62.921959	369.767761	117.028229
758.277588	-8.291697	406.758301	119.505058
758.680420	-20.703142	288.312622	109.597282
759.083374	-20.703142	305.599792	97.210258
759.486084	-43.050575	364.834015	64.992210
759.888916	-48.017754	268.549896	47.636822
760.291504	-30.634268	303.130463	17.873034
760.694214	31.407728	310.537933	149.218506
761.096802	-15.738277	320.413574	109.597282
761.499268	26.446688	280.902222	52.595963
761.901733	11.561345	263.608185	20.353830
762.304199	28.927261	248.780945	72.428665
762.706543	-43.050575	337.691925	-26.800871
763.108826	11.561345	278.431915	134.363602
763.511108	-57.953510	288.312622	32.756790
763.913208	-132.525726	364.834015	94.732651
764.315369	-55.469379	268.549896	87.298820
764.717529	-70.375488	216.643005	55.075443
765.119568	-25.668562	295.721863	129.411072
765.521545	-60.437748	263.608185	-4.459755
765.923462	-40.567074	325.350800	15.392000
766.325317	-38.083679	317.944794	87.298820
766.727112	-105.171371	219.115799	84.820808
767.128845	-72.860260	258.666351	-16.870394
767.530518	-87.770821	204.277725	79.864204
767.932251	-90.256332	246.309341	119.505058
768.333862	-33.117344	177.065598	50.116508
768.735413	-28.151295	211.697281	-14.388138
769.136841	-43.050575	204.277725	62.513138
769.538269	-90.256332	211.697281	112.074409
769.939636	4.117270	184.488312	74.907326
770.341003	-13.255935	221.588470	52.595963
770.742249	-15.738277	226.533279	84.820808
771.143433	-23.185801	219.115799	99.687897
771.544617	31.407728	179.539856	104.642723
771.945740	11.561345	172.116547	30.276381
772.346802	-0.846057	186.962387	134.363602
772.747803	-10.773696	233.950150	69.949905
773.148682	-77.829971	174.591125	45.157028
773.549622	-20.703142	164.692337	-14.388138
773.950439	26.446688	144.889954	79.864204
774.351196	-60.437748	134.986465	79.864204
774.751892	-55.469379	216.643005	22.834656
775.152588	-18.220591	172.116547	35.237103
775.553162	-82.800247	182.014130	126.934784
775.953735	-50.501568	216.643005	57.554825
776.354309	-43.050575	241.366119	37.717171
776.754639	6.598778	125.081245	32.756790
777.155090	-57.953510	189.436218	5.466956
777.555420	-75.345131	152.316711	20.353830
777.955750	-82.800247	194.383881	30.276381
778.355896	-40.567074	92.878120	20.353830
778.756104	-3.327743	214.170120	-4.459755
779.156189	-60.437748	216.643005	10.429618
779.556274	-45.534042	134.986465	-61.570728
779.956299	-33.117344	159.742416	-46.666866
780.356201	-62.921959	82.965973	22.834656
780.756165	-20.703142	142.414307	-19.352888
781.156006	31.407728	144.889954	-11.905851
781.555786	-20.703142	164.692337	-31.766806
781.955505	-95.227539	144.889954	40.197273
782.355225	-70.375488	100.311127	74.907326
782.754761	-30.634268	130.033997	22.834656
783.154358	-10.773696	142.414307	57.554825
783.553894	-28.151295	186.962387	-11.905851
783.953369	51.247349	120.127953	5.466956
784.352783	-45.534042	159.742416	89.776863
784.752075	-67.890961	122.604645	57.554825
785.151367	-70.375488	169.641998	10.429618
785.550598	-40.567074	95.355797	27.795862
785.949768	1.635659	100.311127	52.595963
786.348877	-77.829971	122.604645	-24.318060
786.747986	-35.600395	100.311127	17.873034
787.147034	43.808247	130.033997	47.636822
787.545959	-23.185801	127.557602	20.353830
787.944885	-23.185801	33.380722	60.034100
788.343750	-20.703142	105.265907	30.276381
788.742493	-23.185801	87.922180	30.276381
789.141235	36.368217	75.530823	12.910861
789.539917	-5.809668	87.922180	-16.870394
789.938538	-52.985352	132.510284	55.075443
790.337158	-23.185801	60.657612	-4.459755
790.735718	-35.600395	105.265907	52.595963
791.134094	16.523497	87.922180	-51.634354
791.532532	-52.985352	30.900337	27.795862
791.930847	-15.738277	25.939255	0.503876
792.329224	36.368217	85.444061	-9.423670
792.727417	-62.921959	82.965973	-1.977887
793.125610	-90.256332	30.900337	67.471176
793.523682	-60.437748	33.380722	45.157028
793.921753	9.080047	65.615799	-44.183216
794.319824	14.042541	45.780830	-39.216366
794.717773	-77.829971	97.833511	-41.699669
795.115723	-0.846057	48.260597	-1.977887
795.513550	-10.773696	102.788498	-29.283787
795.911377	4.117270	70.573448	-24.318060
796.309082	-177.315491	112.697388	69.949905
796.706787	-45.534042	122.604645	30.276381
797.104370	-85.285553	78.009216	67.471176
797.501953	21.485367	82.965973	30.276381
797.899536	-25.668562	107.743217	20.353830
798.296936	-33.117344	100.311127	15.392000
798.694397	9.080047	97.833511	22.834656
799.091736	26.446688	97.833511	-49.150623
799.489014	-48.017754	82.965973	-86.419014
799.886230	-33.117344	48.260597	55.075443
800.283447	-65.406403	28.419849	57.554825
800.680542	-55.469379	23.458693	-14.388138
801.077637	38.848377	1.128013	45.157028
801.474670	48.767841	33.380722	20.353830
801.871643	-149.939789	48.260597	37.717171
802.268555	-30.634268	23.458693	2.985400
802.665405	-38.083679	-21.210981	-26.800871
803.062256	6.598778	82.965973	0.503876
803.458923	-23.185801	110.220413	74.907326
803.855652	-48.017754	25.939255	17.873034
804.252258	-100.199310	110.220413	50.116508
804.648804	-50.501568	55.699139	-6.941728
805.045410	-18.220591	-13.763709	-31.766806
805.441833	-105.171371	70.573448	-11.905851
805.838257	-52.985352	105.265907	-1.977887
806.234619	-0.846057	-3.835432	52.595963
806.630859	-112.630341	60.657612	-36.733028
807.027100	-5.809668	167.167221	-11.905851
807.423279	76.037697	11.053784	-39.216366
807.819458	-72.860260	16.016113	-61.570728
808.215515	-25.668562	134.986465	-86.419014
808.611572	41.328434	-3.835432	-88.904465
809.007507	-67.890961	87.922180	-24.318060
809.403381	-50.501568	63.136757	64.992210
809.799194	-15.738277	33.380722	-24.318060
810.195068	-82.800247	25.939255	-16.870394
810.590759	-100.199310	35.860870	10.429618
810.986450	-23.185801	3.609646	55.075443
811.382080	-43.050575	63.136757	-56.602394
811.777649	21.485367	65.615799	-24.318060
812.173157	-5.809668	48.260597	35.237103
812.568665	-15.738277	-70.883759	7.948407
812.964050	-85.285553	-26.176310	5.466956
813.359375	-85.285553	100.311127	62.513138
813.754639	-102.685356	-16.246073	15.392000
814.149841	-8.291697	8.572464	-19.352888
814.545105	-55.469379	85.444061	0.503876
814.940186	4.117270	70.573448	7.948407
815.335266	1.635659	35.860870	-123.711502
815.730347	-20.703142	75.530823	-21.835489
816.125244	4.117270	78.009216	-26.800871
816.520203	-30.634268	1.128013	22.834656
816.914978	-43.050575	-23.693661	0.503876
817.309753	6.598778	82.965973	20.353830
817.704468	19.004484	92.878120	5.466956
818.099182	46.288094	40.821125	87.298820
818.493774	-43.050575	30.900337	-14.388138
818.888367	-25.668562	-13.763709	-44.183216
819.282898	-10.773696	-21.210981	0.503876
819.677307	-48.017754	20.977892	2.985400
820.071716	-57.953510	120.127953	20.353830
820.466003	-30.634268	35.860870	57.554825
820.860291	-20.703142	45.780830	-1.977887
821.254517	-30.634268	70.573448	27.795862
821.648743	-95.227539	97.833511	-11.905851
822.042786	-28.151295	53.219685	27.795862
822.436890	11.561345	50.740261	-36.733028
822.830872	-28.151295	20.977892	-64.055115
823.224792	-38.083679	-16.246073	-31.766806
823.618774	-57.953510	33.380722	15.392000
824.012512	-25.668562	63.136757	-1.977887
824.406311	-50.501568	82.965973	0.503876
824.799988	-48.017754	53.219685	-64.055115
825.193665	-20.703142	97.833511	52.595963
825.587280	-10.773696	-21.210981	27.795862
825.980835	-43.050575	-13.763709	-16.870394
826.374329	-75.345131	23.458693	40.197273
826.767761	-43.050575	-6.317378	-39.216366
827.161194	-130.038391	16.016113	74.907326
827.554443	-72.860260	-36.108360	-41.699669
827.947754	-28.151295	38.341049	40.197273
828.340942	-107.657631	-65.914635	7.948407
828.734131	-23.185801	3.609646	-81.448563
829.127136	-80.315063	35.860870	-21.835489
829.520264	19.004484	58.178493	-14.388138
829.913208	-60.437748	63.136757	-51.634354
830.306152	-80.315063	75.530823	15.392000
830.699097	-100.199310	33.380722	-36.733028
831.091797	-28.151295	-11.281448	-16.870394
831.484619	-33.117344	18.496986	5.466956
831.877319	-18.220591	-55.977516	37.717171
832.270020	11.561345	25.939255	-39.216366
832.662537	19.004484	78.009216	-39.216366
833.055054	-33.117344	43.300961	72.428665
833.447510	-33.117344	38.341049	0.503876
833.839966	-45.534042	-21.210981	-41.699669
834.232361	-62.921959	-65.914635	-69.024086
834.624634	-40.567074	-21.210981	62.513138
835.016907	-90.256332	-6.317378	25.315378
835.409058	23.966146	18.496986	0.503876
835.801208	-57.953510	16.016113	-21.835489
836.193298	-97.713379	-23.693661	30.276381
836.585327	-110.144005	-36.108360	-61.570728
836.977295	-122.577171	-1.353590	7.948407
837.369202	-85.285553	-3.835432	2.985400
837.761047	-65.406403	-18.728407	-26.800871
838.152832	-62.921959	-26.176310	-61.570728
838.544617	-60.437748	-28.659199	-14.388138
838.936218	-50.501568	3.609646	-4.459755
839.327942	-43.050575	80.487648	17.873034
839.719421	-97.713379	6.091175	12.910861
840.111023	-57.953510	25.939255	-49.150623
840.502380	-20.703142	23.458693	-56.602394
840.893860	1.635659	16.016113	-46.666866
841.285217	-38.083679	-36.108360	0.503876
841.676453	-60.437748	-3.835432	0.503876
842.067749	-43.050575	-8.799429	-4.459755
842.458862	-45.534042	-41.075085	-29.283787
842.849976	-100.199310	-73.368546	22.834656
843.241028	-10.773696	33.380722	72.428665
843.632019	-52.985352	11.053784	-93.875557
844.022949	-62.921959	20.977892	12.910861
844.413879	14.042541	-36.108360	20.353830
844.804749	-28.151295	6.091175	-19.352888
845.195496	-18.220591	-23.693661	-16.870394
845.586182	-77.829971	-36.108360	-14.388138
845.976807	-80.315063	18.496986	-14.388138
846.367432	-33.117344	23.458693	-11.905851
846.757996	51.247349	-41.075085	-113.764473
847.148499	23.966146	-33.625294	2.985400
847.538879	-67.890961	18.496986	-56.602394
847.929260	4.117270	-21.210981	-26.800871
848.319641	-102.685356	38.341049	-19.352888
848.709839	-30.634268	-21.210981	-9.423670
849.100098	-43.050575	6.091175	2.985400
849.490234	-8.291697	-16.246073	-9.423670
849.880310	-77.829971	-18.728407	2.985400
850.270325	-55.469379	58.178493	-24.318060
850.660339	-10.773696	11.053784	-31.766806
851.050171	-55.469379	43.300961	32.756790
851.440125	-25.668562	-28.659199	-49.150623
851.829895	-45.534042	-46.042095	-34.249798
852.219604	-48.017754	73.052185	-86.419014
852.609314	16.523497	8.572464	-11.905851
852.998901	-95.227539	13.535002	0.503876
853.388550	-48.017754	43.300961	-44.183216
853.778015	-85.285553	58.178493	2.985400
854.167480	-48.017754	-33.625294	0.503876
854.556885	-48.017754	-68.399208	-16.870394
854.946228	-92.741951	-28.659199	-24.318060
855.335571	9.080047	13.535002	15.392000
855.724731	-80.315063	-51.009663	-26.800871
856.113953	-23.185801	-53.493469	27.795862
856.503052	-57.953510	-26.176310	12.910861
856.892151	-122.577171	-63.430161	27.795862
857.281067	-35.600395	-8.799429	-39.216366
857.670105	-87.770821	70.573448	-88.904465
858.058960	-3.327743	-31.142191	-69.024086
858.447754	14.042541	16.016113	-11.905851
858.836609	23.966146	20.977892	-19.352888
859.225281	51.247349	-21.210981	20.353830
859.613892	-25.668562	-51.009663	-26.800871
860.002502	-82.800247	30.900337	-31.766806
860.391052	-62.921959	-43.558468	-14.388138
860.779541	-48.017754	-43.558468	-24.318060
861.167969	-48.017754	-51.009663	-49.150623
861.556335	-70.375488	-23.693661	-36.733028
861.944702	-62.921959	-1.353590	-61.570728
862.332947	-80.315063	-28.659199	10.429618
862.721069	-33.117344	-16.246073	-34.249798
863.109253	-62.921959	-13.763709	-14.388138
863.497314	-40.567074	-8.799429	22.834656
863.885376	-33.117344	-38.591671	-46.666866
864.273315	9.080047	-80.823418	-61.570728
864.661255	-52.985352	-68.399208	22.834656
865.049072	-30.634268	30.900337	-21.835489
865.436890	-43.050575	25.939255	-19.352888
865.824707	-105.171371	-68.399208	2.985400
866.212280	-48.017754	48.260597	-66.539619
866.599915	-105.171371	35.860870	-54.118324
866.987488	-13.255935	-21.210981	-46.666866
867.375061	-52.985352	-6.317378	-76.478401
867.762451	-8.291697	45.780830	-1.977887
868.149841	-48.017754	35.860870	-49.150623
868.537170	-55.469379	-48.525829	67.471176
868.924438	-48.017754	13.535002	-26.800871
869.311707	-95.227539	-26.176310	-71.508797
869.698853	-60.437748	16.016113	35.237103
870.085938	-60.437748	33.380722	10.429618
870.472961	-25.668562	16.016113	40.197273
870.859985	-5.809668	-18.728407	-41.699669
871.246887	-48.017754	-23.693661	-21.835489
871.633789	-45.534042	-11.281448	-26.800871
872.020569	51.247349	-95.736023	17.873034
872.407349	48.767841	-38.591671	-36.733028
872.794067	-62.921959	68.094604	-73.993614
873.180725	-90.256332	-23.693661	-81.448563
873.567322	-30.634268	-8.799429	-49.150623
873.953796	-10.773696	-68.399208	-108.791672
874.340332	1.635659	-46.042095	-24.318060
874.726624	-72.860260	-53.493469	-11.905851
875.113037	-90.256332	-16.246073	-11.905851
875.499329	-8.291697	-46.042095	-14.388138
875.885559	21.485367	-46.042095	-26.800871
876.271729	-33.117344	40.821125	-9.423670
876.657898	-87.770821	-36.108360	-39.216366
877.044006	-50.501568	23.458693	-9.423670
877.429932	-13.255935	-48.525829	-64.055115
877.815918	-97.713379	3.609646	-36.733028
878.201782	-30.634268	40.821125	-46.666866
878.587585	-52.985352	-43.558468	-41.699669
878.973389	-25.668562	-115.625580	-69.024086
879.359070	-77.829971	-1.353590	17.873034
879.744751	-25.668562	58.178493	20.353830
880.130310	-95.227539	33.380722	89.776863
880.515930	-92.741951	25.939255	-56.602394
880.901367	-75.345131	-31.142191	-66.539619
881.286804	1.635659	-33.625294	-83.933807
881.672180	-13.255935	25.939255	-34.249798
882.057434	-55.469379	-43.558468	-31.766806
882.442749	-57.953510	6.091175	-73.993614
882.827942	43.808247	13.535002	-31.766806
883.213013	-82.800247	16.016113	-31.766806
883.598145	-65.406403	-13.763709	32.756790
883.983154	-10.773696	-88.279243	-16.870394
884.368042	-57.953510	-46.042095	-41.699669
884.753052	-60.437748	-3.835432	-56.602394
885.137817	-35.600395	-21.210981	-19.352888
885.522644	-48.017754	-31.142191	-71.508797
885.907349	14.042541	-48.525829	-88.904465
886.292053	-5.809668	16.016113	-4.459755
886.676636	-70.375488	-41.075085	-11.905851
887.061157	-28.151295	-33.625294	-56.602394
887.445740	-40.567074	-33.625294	-54.118324
887.830078	71.080505	11.053784	7.948407
888.214539	-3.327743	-1.353590	55.075443
888.598816	-23.185801	25.939255	20.353830
888.983093	-85.285553	6.091175	5.466956
889.367249	11.561345	13.535002	-106.305367
889.751465	-72.860260	-46.042095	-51.634354
890.135498	-92.741951	-33.625294	-111.277946
890.519531	-72.860260	-105.679947	-16.870394
890.903503	-48.017754	-51.009663	-19.352888
891.287415	-55.469379	-65.914635	-29.283787
891.671326	-40.567074	11.053784	32.756790
892.055054	-48.017754	18.496986	-26.800871
892.438843	1.635659	-13.763709	-39.216366
892.822510	-43.050575	35.860870	30.276381
893.206116	-23.185801	38.341049	-54.118324
893.589661	-60.437748	53.219685	-64.055115
893.973206	-95.227539	25.939255	-59.086441
894.356628	-72.860260	-1.353590	-128.685593
894.739990	-20.703142	6.091175	-73.993614
895.123352	-25.668562	40.821125	-44.183216
895.506592	-90.256332	38.341049	32.756790
895.889832	-115.116920	-33.625294	15.392000
896.272949	-105.171371	6.091175	-61.570728
896.656067	-33.117344	50.740261	-16.870394
897.039063	-10.773696	1.128013	-19.352888
897.422058	-28.151295	-11.281448	-44.183216
897.804993	-75.345131	65.615799	-16.870394
898.187866	-52.985352	-53.493469	-41.699669
898.570618	-65.406403	20.977892	-91.390030
898.953369	-40.567074	-38.591671	-78.963425
899.336121	-13.255935	-13.763709	12.910861
899.718689	-33.117344	18.496986	12.910861
900.101257	4.117270	-36.108360	-1.977887
900.483704	-28.151295	-103.193779	-26.800871
900.866211	31.407728	1.128013	-9.423670
901.248596	33.887959	-36.108360	-29.283787
901.630920	-67.890961	33.380722	35.237103
902.013184	-8.291697	-88.279243	-76.478401
902.395386	-10.773696	-18.728407	-19.352888
902.777588	-50.501568	13.535002	-34.249798
903.159668	9.080047	1.128013	-64.055115
903.541687	-50.501568	-85.793816	-56.602394
903.923645	-117.603607	-95.736023	15.392000
904.305603	-65.406403	-63.430161	15.392000
904.687500	-85.285553	-53.493469	-26.800871
905.069275	-80.315063	-26.176310	-14.388138
905.451050	-122.577171	-105.679947	-64.055115
905.832642	-62.921959	-28.659199	0.503876
906.214294	46.288094	-58.461670	0.503876
906.595825	-62.921959	-26.176310	-54.118324
906.977417	-95.227539	-33.625294	-126.198555
907.358826	-23.185801	-83.308624	-56.602394
907.740234	-55.469379	-123.085892	-46.666866
908.121582	-85.285553	-48.525829	-49.150623
908.502869	-67.890961	-28.659199	-16.870394
908.884033	-33.117344	-28.659199	-31.766806
909.265198	-62.921959	-46.042095	-39.216366
909.646301	-25.668562	-160.402145	-16.870394
910.027344	4.117270	-60.945797	37.717171
910.408325	-52.985352	-51.009663	74.907326
910.789246	-60.437748	-11.281448	-21.835489
911.170105	31.407728	-160.402145	-69.024086
911.550903	-55.469379	20.977892	37.717171
911.931641	-85.285553	-26.176310	-81.448563
912.312317	-65.406403	-118.112289	-6.941728
912.692932	-72.860260	-36.108360	0.503876
913.073547	1.635659	-11.281448	-44.183216
913.453979	-40.567074	16.016113	-19.352888
913.834473	-45.534042	13.535002	5.466956
914.214783	-23.185801	3.609646	-78.963425
914.595154	-40.567074	-73.368546	-39.216366
914.975464	-28.151295	40.821125	27.795862
915.355652	31.407728	-70.883759	-69.024086
915.735840	-3.327743	-1.353590	-21.835489
916.115845	-10.773696	-51.009663	-83.933807
916.495972	-15.738277	1.128013	-14.388138
916.875854	9.080047	-36.108360	52.595963
917.255859	-97.713379	-28.659199	-14.388138
917.635620	-80.315063	-13.763709	-83.933807
918.015503	-55.469379	6.091175	-66.539619
918.395203	-48.017754	-46.042095	-16.870394
918.774902	-82.800247	-38.591671	-59.086441
919.154480	-135.013153	-11.281448	-39.216366
919.534058	-92.741951	-73.368546	-93.875557
919.913574	9.080047	-13.763709	0.503876
920.292969	-48.017754	-73.368546	-54.118324
920.672363	-25.668562	-23.693661	-9.423670
921.051636	-8.291697	-6.317378	-46.666866
921.430969	16.523497	3.609646	-71.508797
921.810181	-25.668562	11.053784	35.237103
922.189331	-82.800247	58.178493	25.315378
922.568420	-43.050575	-11.281448	-34.249798
922.947388	-33.117344	1.128013	-36.733028
923.326416	-5.809668	-13.763709	15.392000
923.705261	-43.050575	-26.176310	-61.570728
924.084106	-72.860260	28.419849	-36.733028
924.462891	-40.567074	11.053784	-9.423670
924.841675	-70.375488	-31.142191	12.910861
925.220337	11.561345	-80.823418	-26.800871
925.598938	-122.577171	-60.945797	7.948407
925.977478	-67.890961	-26.176310	-34.249798
926.355957	-80.315063	-33.625294	-14.388138
926.734436	-50.501568	-98.221886	-14.388138
927.112732	-8.291697	-63.430161	-24.318060
927.491089	-40.567074	1.128013	-66.539619
927.869324	-20.703142	-80.823418	-64.055115
928.247559	-45.534042	11.053784	-64.055115
928.625671	11.561345	-58.461670	-29.283787
929.003723	-33.117344	-46.042095	-6.941728
929.381775	-95.227539	-36.108360	22.834656
929.759705	-0.846057	-73.368546	10.429618
930.137634	-3.327743	-75.853439	-64.055115
930.515381	-45.534042	-16.246073	-24.318060
930.893250	6.598778	-48.525829	20.353830
931.270935	-55.469379	-3.835432	-64.055115
931.648560	-67.890961	-48.525829	-66.539619
932.026123	-35.600395	-65.914635	15.392000
932.403687	-52.985352	16.016113	20.353830
932.781250	-30.634268	-93.250420	-64.055115
933.158630	-52.985352	-88.279243	-11.905851
933.536011	-18.220591	-3.835432	-26.800871
933.913208	-20.703142	-120.598976	-49.150623
934.290527	-112.630341	-1.353590	-69.024086
934.667664	-38.083679	-41.075085	-59.086441
935.044800	-87.770821	-13.763709	-56.602394
935.421814	-60.437748	-41.075085	47.636822
935.798889	-25.668562	-48.525829	-46.666866
936.175842	-52.985352	-60.945797	-128.685593
936.552673	46.288094	3.609646	-71.508797
936.929504	-77.829971	3.609646	-26.800871
937.306274	48.767841	1.128013	5.466956
937.683044	9.080047	-21.210981	-46.666866
938.059570	11.561345	-60.945797	-39.216366
938.436218	-107.657631	40.821125	-61.570728
938.812744	-62.921959	-31.142191	-6.941728
939.189148	-30.634268	-48.525829	-16.870394
939.565613	-18.220591	43.300961	-39.216366
939.941956	-35.600395	-21.210981	25.315378
940.318237	-45.534042	-38.591671	-1.977887
940.694458	-82.800247	-1.353590	10.429618
941.070557	-15.738277	-73.368546	-4.459755
941.446655	-10.773696	-13.763709	2.985400
941.822693	-48.017754	-43.558468	0.503876
942.198669	36.368217	-105.679947	-24.318060
942.574646	-23.185801	8.572464	-66.539619
942.950562	-13.255935	-48.525829	-88.904465
943.326294	-25.668562	-28.659199	-36.733028
943.702026	23.966146	-123.085892	-39.216366
944.077698	-80.315063	-11.281448	-11.905851
944.453369	4.117270	3.609646	-36.733028
944.828918	63.643875	-65.914635	-19.352888
945.204468	6.598778	-36.108360	-1.977887
945.579834	-25.668562	1.128013	-1.977887
945.955261	-25.668562	-90.764778	-21.835489
946.330627	4.117270	-75.853439	0.503876
946.705811	-15.738277	-21.210981	-11.905851
947.081055	-43.050575	-53.493469	-39.216366
947.456177	-45.534042	-26.176310	-51.634354
947.831238	-77.829971	-55.977516	0.503876
948.206238	-62.921959	-38.591671	-21.835489
948.581238	16.523497	-41.075085	2.985400
948.956116	33.887959	-85.793816	-41.699669
949.330933	-18.220591	-1.353590	-26.800871
949.705811	-33.117344	-31.142191	-39.216366
950.080505	-135.013153	-80.823418	-36.733028
950.455139	-60.437748	-33.625294	-91.390030
950.829773	-50.501568	-36.108360	25.315378
951.204346	-52.985352	-3.835432	-56.602394
951.578735	-38.083679	-28.659199	-19.352888
951.953186	-87.770821	-55.977516	-4.459755
952.327515	16.523497	-16.246073	-39.216366
952.701843	-48.017754	-6.317378	0.503876
953.076172	-15.738277	-3.835432	-4.459755
953.450195	-50.501568	-55.977516	-6.941728
953.824341	-33.117344	-53.493469	30.276381
954.198486	-55.469379	-46.042095	-26.800871
954.572449	56.206322	-55.977516	2.985400
954.946350	-30.634268	-28.659199	-4.459755
955.320251	-75.345131	-147.960648	-51.634354
955.694092	-18.220591	18.496986	-39.216366
956.067871	61.164749	-1.353590	-26.800871
956.441589	23.966146	-93.250420	32.756790
956.815125	-13.255935	-85.793816	-26.800871
957.188721	28.927261	-55.977516	-51.634354
957.562256	-90.256332	23.458693	-73.993614
957.935730	-102.685356	-16.246073	-49.150623
958.309021	26.446688	-63.430161	-66.539619
958.682373	-48.017754	1.128013	-4.459755
959.055664	-85.285553	-95.736023	-26.800871
959.428955	14.042541	-26.176310	7.948407
959.802063	-23.185801	-95.736023	-61.570728
960.175110	-8.291697	-103.193779	-66.539619
960.548157	-48.017754	-28.659199	10.429618
960.921143	-57.953510	6.091175	-34.249798
961.294128	-30.634268	-38.591671	-54.118324
961.666809	21.485367	-26.176310	7.948407
962.039612	-38.083679	-120.598976	20.353830
962.412415	-10.773696	-51.009663	-9.423670
962.785095	-75.345131	-100.707840	-54.118324
963.157715	-28.151295	-103.193779	-101.333061
963.530151	-3.327743	50.740261	-44.183216
963.902649	-85.285553	-90.764778	-64.055115
964.275146	-90.256332	-55.977516	-14.388138
964.647522	-38.083679	-93.250420	-39.216366
965.019714	-3.327743	-31.142191	-71.508797
965.392029	-77.829971	-11.281448	-71.508797
965.764160	-5.809668	-128.060059	-6.941728
966.136292	1.635659	-13.763709	2.985400
966.508423	23.966146	-11.281448	-88.904465
966.880371	58.685650	-23.693661	-34.249798
967.252319	21.485367	25.939255	-46.666866
967.624207	1.635659	-65.914635	17.873034
967.996094	4.117270	-48.525829	7.948407
968.367737	-52.985352	-73.368546	-19.352888
968.739441	-67.890961	1.128013	-4.459755
969.111084	-57.953510	-36.108360	15.392000
969.482666	-30.634268	8.572464	17.873034
969.854248	-38.083679	-16.246073	-51.634354
970.225586	-65.406403	3.609646	-83.933807
970.596985	16.523497	8.572464	-9.423670
970.968323	-102.685356	-80.823418	0.503876
971.339661	-57.953510	-46.042095	-56.602394
971.710754	14.042541	-93.250420	-26.800871
972.081909	-25.668562	18.496986	-51.634354
972.453064	-0.846057	-6.317378	22.834656
972.824097	-45.534042	-115.625580	-36.733028
973.194946	-13.255935	68.094604	-34.249798
973.565918	-35.600395	-73.368546	-64.055115
973.936768	-38.083679	33.380722	-19.352888
974.307556	-97.713379	-73.368546	20.353830
974.678284	-72.860260	-8.799429	-83.933807
975.048828	-72.860260	-46.042095	-1.977887
975.419495	-97.713379	11.053784	-78.963425
975.790039	-25.668562	-93.250420	0.503876
976.160522	-20.703142	-43.558468	-31.766806
976.530884	-20.703142	-95.736023	-9.423670
976.901245	-60.437748	-83.308624	-83.933807
977.271606	4.117270	-33.625294	5.466956
977.641846	-117.603607	-28.659199	22.834656
978.012024	-48.017754	-3.835432	-34.249798
978.382019	-50.501568	-6.317378	-76.478401
978.752136	46.288094	-85.793816	-19.352888
979.122131	-122.577171	-21.210981	5.466956
979.492065	-90.256332	-41.075085	-69.024086
979.861877	-50.501568	-78.338310	-19.352888
980.231689	-52.985352	-16.246073	37.717171
980.601440	-43.050575	-63.430161	10.429618
980.971191	-48.017754	-78.338310	45.157028
981.340820	-28.151295	-55.977516	22.834656
981.710266	-45.534042	-118.112289	-29.283787
982.079773	-67.890961	-93.250420	-31.766806
982.449280	-52.985352	-60.945797	-29.283787
982.818604	-30.634268	-43.558468	-59.086441
983.187866	-90.256332	-70.883759	-64.055115
983.557129	-45.534042	-58.461670	-39.216366
983.926331	11.561345	-1.353590	-29.283787
984.295471	-67.890961	33.380722	-93.875557
984.664612	23.966146	-1.353590	-64.055115
985.033569	-43.050575	-31.142191	-34.249798
985.402527	-18.220591	-103.193779	-6.941728
985.771362	-33.117344	-88.279243	-59.086441
986.140259	14.042541	6.091175	-59.086441
986.508911	-77.829971	-38.591671	-34.249798
986.877625	-60.437748	-18.728407	-11.905851
987.246277	-48.017754	-83.308624	-66.539619
987.614929	-18.220591	-33.625294	-19.352888
987.983459	-43.050575	-31.142191	-11.905851
988.351807	-28.151295	-33.625294	17.873034
988.720215	6.598778	-55.977516	-31.766806
989.088623	-120.090401	-23.693661	12.910861
989.456909	16.523497	-21.210981	-39.216366
989.825012	-52.985352	-46.042095	-44.183216
990.193115	-67.890961	-105.679947	-78.963425
990.561279	-30.634268	-18.728407	-16.870394
990.929321	-28.151295	-11.281448	-6.941728
991.297302	-60.437748	1.128013	-56.602394
991.665100	-75.345131	-26.176310	-41.699669
992.033020	-102.685356	-58.461670	-21.835489
992.400818	-43.050575	6.091175	5.466956
992.768494	1.635659	38.341049	2.985400
993.136047	-77.829971	-33.625294	12.910861
993.503723	-90.256332	11.053784	-59.086441
993.871277	-0.846057	-63.430161	-51.634354
994.238770	-62.921959	11.053784	-1.977887
994.606140	-82.800247	43.300961	7.948407
994.973450	-5.809668	13.535002	-66.539619
995.340759	-62.921959	-65.914635	-81.448563
995.708008	-65.406403	-68.399208	94.732651
996.075195	-23.185801	3.609646	-26.800871
996.442200	-50.501568	-51.009663	62.513138
996.809265	-28.151295	70.573448	5.466956
997.176270	-40.567074	-36.108360	-21.835489
997.543152	-40.567074	-26.176310	35.237103
997.910095	-45.534042	-68.399208	-66.539619
998.276733	-15.738277	-123.085892	-49.150623
998.643494	-8.291697	-23.693661	-78.963425
999.010193	-13.255935	23.458693	-11.905851
999.376831	-105.171371	-108.166229	-76.478401
999.743286	-15.738277	-18.728407	-26.800871
1000.109802	-38.083679	-133.034531	-98.847214
1000.476257	-115.116920	-51.009663	-4.459755
1000.842651	-60.437748	-105.679947	55.075443
1001.208923	16.523497	-70.883759	-26.800871
1001.575134	-105.171371	-31.142191	27.795862
1001.941284	-15.738277	-46.042095	-24.318060
1002.307434	-0.846057	-73.368546	-24.318060
1002.673523	-48.017754	18.496986	-78.963425
1003.039429	-57.953510	-1.353590	-86.419014
1003.405334	-75.345131	-16.246073	-9.423670
1003.771179	-45.534042	-21.210981	-59.086441
1004.137024	-72.860260	8.572464	-21.835489
1004.502808	-23.185801	-48.525829	-29.283787
1004.868408	1.635659	-36.108360	-29.283787
1005.234009	-57.953510	-70.883759	-93.875557
1005.599609	-62.921959	3.609646	40.197273
1005.965149	-67.890961	-11.281448	12.910861
1006.330444	-10.773696	-80.823418	5.466956
1006.695862	-13.255935	-55.977516	-11.905851
1007.061218	-62.921959	3.609646	-78.963425
1007.426453	-62.921959	-1.353590	67.471176
1007.791626	-35.600395	-41.075085	-31.766806
1008.156677	33.887959	16.016113	-9.423670
1008.521729	-60.437748	-26.176310	-78.963425
1008.886780	-85.285553	-33.625294	-14.388138
1009.251709	4.117270	-23.693661	-21.835489
1009.616577	-38.083679	-73.368546	-16.870394
1009.981384	-95.227539	-51.009663	-49.150623
1010.346130	-35.600395	-53.493469	35.237103
1010.710754	-35.600395	-36.108360	-16.870394
1011.075439	26.446688	-46.042095	-34.249798
1011.439941	-132.525726	-88.279243	-51.634354
1011.804443	-50.501568	-43.558468	-29.283787
1012.168884	-45.534042	-13.763709	10.429618
1012.533325	-33.117344	-13.763709	-51.634354
1012.897522	-87.770821	-41.075085	-1.977887
1013.261780	11.561345	-21.210981	35.237103
1013.626038	-5.809668	-90.764778	-24.318060
1013.990112	19.004484	-38.591671	-9.423670
1014.354187	-62.921959	-70.883759	-36.733028
1014.718140	4.117270	-33.625294	-31.766806
1015.082153	-95.227539	-41.075085	-61.570728
1015.446045	-0.846057	-58.461670	-41.699669
1015.809937	6.598778	-98.221886	-31.766806
1016.173523	-30.634268	-33.625294	-11.905851
1016.537170	-45.534042	-53.493469	-91.390030
1016.900879	16.523497	-23.693661	2.985400
1017.264404	-60.437748	30.900337	-51.634354
1017.627991	-5.809668	-21.210981	10.429618
1017.991333	-3.327743	-18.728407	-61.570728
1018.354675	-139.988220	-38.591671	7.948407
1018.718018	-77.829971	-65.914635	10.429618
1019.081299	1.635659	-16.246073	-39.216366
1019.444397	-87.770821	3.609646	-4.459755
1019.807495	-45.534042	-133.034531	-24.318060
1020.170593	-3.327743	8.572464	-6.941728
1020.533691	-50.501568	23.458693	-14.388138
1020.896606	-28.151295	-26.176310	52.595963
1021.259460	-33.117344	-75.853439	-44.183216
1021.622253	-80.315063	-26.176310	-56.602394
1021.985046	-57.953510	-53.493469	27.795862
1022.347778	-102.685356	-88.279243	-29.283787
1022.710327	-55.469379	1.128013	-66.539619
1023.072876	-60.437748	-16.246073	17.873034
1023.435364	-18.220591	-48.525829	-49.150623
1023.797852	51.247349	-78.338310	2.985400
1024.160278	-25.668562	-55.977516	-41.699669
1024.522461	-102.685356	-1.353590	0.503876
1024.884766	4.117270	-75.853439	-51.634354
1025.246948	-85.285553	-48.525829	-34.249798
1025.609131	-87.770821	1.128013	12.910861
1025.971069	-77.829971	3.609646	-16.870394
1026.333130	-30.634268	-100.707840	-59.086441
1026.694946	-75.345131	11.053784	-9.423670
1027.056885	-15.738277	-6.317378	-39.216366
1027.418823	26.446688	-51.009663	-46.666866
1027.780396	-8.291697	-55.977516	25.315378
1028.142090	-38.083679	-6.317378	-88.904465
1028.503784	-82.800247	-33.625294	45.157028
1028.865479	-57.953510	-28.659199	-36.733028
1029.226807	-60.437748	-23.693661	-69.024086
1029.588135	-35.600395	-18.728407	-26.800871
1029.949707	-120.090401	-51.009663	-34.249798
1030.310913	-70.375488	-78.338310	-113.764473
1030.672241	-48.017754	-68.399208	25.315378
1031.033325	-77.829971	3.609646	-41.699669
1031.394531	-3.327743	-43.558468	12.910861
1031.755493	-28.151295	-13.763709	-31.766806
1032.116577	-50.501568	-28.659199	15.392000
1032.477417	-100.199310	-46.042095	-4.459755
1032.838257	-33.117344	-41.075085	-19.352888
1033.199097	-60.437748	8.572464	-16.870394
1033.559937	1.635659	-58.461670	-11.905851
1033.920654	-15.738277	-33.625294	-54.118324
1034.281128	-43.050575	48.260597	-76.478401
1034.641724	-35.600395	-33.625294	55.075443
1035.002197	11.561345	-51.009663	10.429618
1035.362671	-77.829971	18.496986	-31.766806
1035.722900	-48.017754	-60.945797	-4.459755
1036.083252	-67.890961	-51.009663	67.471176
1036.443481	-102.685356	13.535002	-31.766806
1036.803711	33.887959	-51.009663	-78.963425
1037.163940	-57.953510	-16.246073	-44.183216
1037.523804	-55.469379	-8.799429	-39.216366
1037.883789	-30.634268	-100.707840	-14.388138
1038.243774	-60.437748	-80.823418	-6.941728
1038.603638	-52.985352	-46.042095	-11.905851
1038.963257	-55.469379	-53.493469	35.237103
1039.323120	-20.703142	-78.338310	47.636822
1039.682861	-100.199310	-13.763709	2.985400
>>>>>End Processed Spectral Data<<<<<
