Jaz Data File
++++++++++++++++++++++++++++++++++++
Date: Sat Dec 06 17:01:08 2014
User: jaz
Dark Spectrum Present: Yes
Reference Spectrum Present: Yes
Processed Spectrum Present: No
Spectrometers: JAZA2310
Integration Time (usec): 3860 (JAZA2310)
Spectra Averaged: 1 (JAZA2310)
Boxcar Smoothing: 0 (JAZA2310)
Correct for Electrical Dark: Yes (JAZA2310)
Strobe/Lamp Enabled: No (JAZA2310)
Correct for Detector Non-linearity: Yes (JAZA2310)
Correct for Stray Light: No (JAZA2310)
Number of Pixels in Processed Spectrum: 2048
>>>>>Begin Processed Spectral Data<<<<<
W	D	R	S
188.301102	0.000000	0.000000	0.000000
188.764923	0.000000	0.000000	0.000000
189.228699	-20.970362	-85.906693	-41.925381
189.692459	-50.768921	-46.154892	-46.892597
190.156158	-30.901531	-16.358812	-41.925381
190.619812	-11.040870	-115.738510	-36.958721
191.083435	3.850164	-13.876443	-49.376228
191.547043	-11.040870	1.015307	-31.992344
192.010590	-43.317894	43.188339	32.531364
192.474091	-8.558860	53.107075	-9.649258
192.937561	3.850164	40.708496	59.808777
193.401001	11.294272	15.903437	5.241426
193.864410	-3.594883	25.826595	-12.131448
194.327759	58.418789	-28.771961	-4.685324
194.791077	88.162361	55.586540	17.647551
195.254349	112.937469	30.787687	30.050945
195.717575	-3.594883	15.903437	-14.613609
196.180786	68.334869	35.748230	-2.203446
196.643951	21.218338	20.865225	49.891148
197.107071	-1.113051	-36.221138	-14.613609
197.570145	-18.487799	33.268078	-36.958721
198.033203	-30.901531	60.545017	57.329487
198.496216	85.684250	-43.671261	-4.685324
198.959167	-53.252720	-46.154892	-4.685324
199.422089	-53.252720	-63.542992	-31.992344
199.884979	-55.736755	-18.841150	-14.613609
200.347855	8.812963	-78.451164	7.722886
200.810654	-11.040870	33.268078	-61.796516
201.273422	-11.040870	-58.574493	10.204242
201.736160	38.581429	3.496945	57.329487
202.198853	-45.801373	-58.574493	-12.131448
202.661514	-25.935804	-66.027466	-61.796516
203.124130	-40.834385	50.627647	10.204242
203.586700	-23.453032	-3.948147	-14.613609
204.049240	-68.158394	3.496945	-12.131448
204.511734	-58.220898	-11.394178	-17.096010
204.974197	46.021179	-48.638626	-118.963715
205.436615	-13.523120	53.107075	-41.925381
205.899002	-43.317894	-68.512047	-27.026524
206.361343	-23.453032	-46.154892	-61.796516
206.823654	-16.005474	-100.820747	-14.613609
207.285919	-13.523120	-120.711906	-96.587257
207.748123	6.331683	-38.704453	-46.892597
208.210327	-90.523872	-43.671261	-31.992344
208.672485	-70.642929	-46.154892	-36.958721
209.134583	-73.127708	-43.671261	-54.344082
209.596649	-53.252720	-21.323730	-34.475479
210.058670	26.179684	-46.154892	-22.061125
210.520676	-60.705147	-1.466300	-61.796516
210.982635	-40.834385	3.496945	-27.026524
211.444534	13.775479	48.147984	-41.925381
211.906403	-30.901531	35.748230	-9.649258
212.368240	-23.453032	-66.027466	-44.408936
212.830048	-97.980942	60.545017	7.722886
213.291779	33.620987	-78.451164	-41.925381
213.753494	-97.980942	-85.906693	-64.280922
214.215179	-65.673828	-38.704453	17.647551
214.676819	-38.350979	-6.430098	-89.130363
215.138412	-73.127708	-33.738064	-17.096010
215.599960	-1.113051	-26.289066	-4.685324
216.061493	-110.411629	-3.948147	-12.131448
216.522949	-38.350979	-63.542992	-46.892597
216.984406	-90.523872	-46.154892	32.531364
217.445801	-6.076819	23.346029	2.759996
217.907166	-63.189365	-70.996605	-19.578514
218.368484	-45.801373	-28.771961	-64.280922
218.829773	-68.158394	-73.481392	-14.613609
219.291031	-100.466896	-36.221138	-44.408936
219.752228	26.179684	-98.334778	-22.061125
220.213379	-100.466896	-1.466300	-89.130363
220.674500	-88.038345	3.496945	-99.073143
221.135574	3.850164	-6.430098	-24.543703
221.596634	36.101257	-46.154892	-74.219315
222.057648	-28.418549	-18.841150	-36.958721
222.518600	6.331683	-16.358812	-7.167171
222.979553	-40.834385	8.459772	-44.408936
223.440430	-1.113051	-75.966293	-61.796516
223.901276	-53.252720	-6.430098	30.050945
224.362076	-8.558860	-56.090332	-76.704247
224.822845	-63.189365	-43.671261	-34.475479
225.283569	-97.980942	-41.187870	17.647551
225.744278	-60.705147	30.787687	-41.925381
226.204910	6.331683	-13.876443	-29.509449
226.665512	-38.350979	3.496945	-113.990463
227.126114	16.256447	-33.738064	-41.925381
227.586639	-80.582550	10.941098	-17.096010
228.047119	-85.553062	-46.154892	-9.649258
228.507568	-75.612602	-51.122467	-46.892597
228.967972	-13.523120	-51.122467	49.891148
229.428345	-58.220898	3.496945	-39.442066
229.888687	-6.076819	-58.574493	-31.992344
230.348984	55.939449	-100.820747	-36.958721
230.809219	-60.705147	50.627647	-56.828167
231.269440	-50.768921	33.268078	-36.958721
231.729614	-100.466896	-98.334778	-19.578514
232.189758	-65.673828	-23.806414	-19.578514
232.649841	53.459999	-53.606281	-19.578514
233.109894	3.850164	1.015307	-76.704247
233.569901	-80.582550	-70.996605	-66.765289
234.029892	-60.705147	-46.154892	22.609192
234.489822	-68.158394	-23.806414	-19.578514
234.949707	-63.189365	-48.638626	-14.613609
235.409561	-35.867680	-26.289066	-19.578514
235.869385	-28.418549	-78.451164	-29.509449
236.329163	-43.317894	-23.806414	-22.061125
236.788895	1.368541	-46.154892	-59.312222
237.248581	-38.350979	-26.289066	-46.892597
237.708237	-25.935804	-63.542992	15.166507
238.167847	26.179684	30.787687	-54.344082
238.627441	-45.801373	48.147984	-111.503937
239.086960	-63.189365	10.941098	2.759996
239.546463	-105.438980	-13.876443	-104.045113
240.005920	-68.158394	-46.154892	7.722886
240.465332	-25.935804	-51.122467	-56.828167
240.924698	11.294272	-6.430098	-111.503937
241.384033	-122.844856	-23.806414	-116.477104
241.843338	13.775479	15.903437	-41.925381
242.302597	-40.834385	-33.738064	0.278327
242.761810	-48.285095	-38.704453	-59.312222
243.220993	-20.970362	5.978478	-34.475479
243.680115	-30.901531	-75.966293	-104.045113
244.139221	-90.523872	10.941098	49.891148
244.598282	-16.005474	-33.738064	-41.925381
245.057297	1.368541	-75.966293	-19.578514
245.516266	-8.558860	25.826595	-22.061125
245.975189	-1.113051	-61.058620	101.940262
246.434082	-8.558860	58.065895	-24.543703
246.892944	3.850164	-36.221138	22.609192
247.351761	21.218338	-23.806414	-49.376228
247.810516	-43.317894	-11.394178	-44.408936
248.269272	-93.009499	-68.512047	-41.925381
248.727951	-53.252720	-46.154892	-12.131448
249.186600	11.294272	-38.704453	-34.475479
249.645218	-55.736755	33.268078	-79.189285
250.103790	26.179684	-46.154892	-99.073143
250.562317	1.368541	-88.392120	-66.765289
251.020813	-65.673828	-43.671261	-56.828167
251.479279	-100.466896	-51.122467	-19.578514
251.937668	-28.418549	-46.154892	20.128357
252.396057	-30.901531	-13.876443	12.685359
252.854385	-8.558860	-13.876443	-94.101479
253.312683	-30.901531	-46.154892	-24.543703
253.770920	60.897896	-83.421501	-34.475479
254.229126	-11.040870	-36.221138	-4.685324
254.687302	-38.350979	20.865225	-9.649258
255.145432	-50.768921	-98.334778	17.647551
255.603500	-117.871269	-36.221138	-81.674423
256.061584	-35.867680	13.422318	-17.096010
256.519592	-55.736755	-1.466300	-74.219315
256.977570	-80.582550	-66.027466	-9.649258
257.435455	8.812963	-53.606281	-39.442066
257.893372	-75.612602	-73.481392	-22.061125
258.351196	-11.040870	8.459772	22.609192
258.808990	-38.350979	-88.392120	-44.408936
259.266754	-8.558860	-23.806414	5.241426
259.724487	-16.005474	-16.358812	-34.475479
260.182190	6.331683	33.268078	-39.442066
260.639832	-38.350979	8.459772	32.531364
261.097443	-78.097450	-88.392120	-39.442066
261.554993	31.140745	-11.394178	-56.828167
262.012512	-6.076819	-68.512047	10.204242
262.469971	-93.009499	-21.323730	20.128357
262.927429	-11.040870	-11.394178	-76.704247
263.384827	-3.594883	-70.996605	-9.649258
263.842194	-70.642929	-13.876443	5.241426
264.299530	-75.612602	-8.912018	-61.796516
264.756805	-11.040870	-18.841150	-22.061125
265.214050	-68.158394	-113.251907	25.089924
265.671234	11.294272	-61.058620	-19.578514
266.128387	-11.040870	-75.966293	12.685359
266.585510	-80.582550	-48.638626	-74.219315
267.042572	-11.040870	-6.430098	-14.613609
267.499573	-78.097450	8.459772	2.759996
267.956604	-16.005474	-16.358812	0.278327
268.413574	-28.418549	-21.323730	10.204242
268.870483	-20.970362	-58.574493	116.803123
269.327362	-73.127708	-41.187870	-39.442066
269.784180	-20.970362	-68.512047	-76.704247
270.240936	-43.317894	-48.638626	-31.992344
270.697693	1.368541	-66.027466	-94.101479
271.154419	-53.252720	-85.906693	-133.886169
271.611053	-68.158394	-90.877663	-76.704247
272.067688	1.368541	-16.358812	-22.061125
272.524292	-58.220898	-48.638626	0.278327
272.980835	-3.594883	38.228416	-29.509449
273.437347	-100.466896	-68.512047	25.089924
273.893799	-40.834385	-48.638626	-56.828167
274.350250	-135.280899	-85.906693	-2.203446
274.806610	-55.736755	-13.876443	-34.475479
275.262939	-28.418549	-23.806414	-36.958721
275.719238	-85.553062	-3.948147	12.685359
276.175507	-73.127708	-31.254961	-64.280922
276.631714	-63.189365	-23.806414	-9.649258
277.087891	-50.768921	-78.451164	-49.376228
277.544067	21.218338	-58.574493	12.685359
278.000122	-1.113051	-3.948147	-4.685324
278.456177	-95.495102	15.903437	-24.543703
278.912201	-95.495102	-41.187870	-91.615799
279.368164	-48.285095	-78.451164	0.278327
279.824097	-55.736755	-80.936279	10.204242
280.279968	16.256447	-11.394178	5.241426
280.735840	38.581429	-48.638626	-36.958721
281.191620	-60.705147	-3.948147	-24.543703
281.647400	-38.350979	-11.394178	-29.509449
282.103149	-33.384621	-11.394178	22.609192
282.558838	-6.076819	-73.481392	-64.280922
283.014465	-48.285095	-80.936279	-74.219315
283.470062	-1.113051	-93.363304	-54.344082
283.925629	-35.867680	-33.738064	-81.674423
284.381134	-25.935804	-70.996605	-9.649258
284.836639	-75.612602	18.384315	-59.312222
285.292053	-40.834385	13.422318	-29.509449
285.747467	3.850164	-13.876443	-14.613609
286.202820	-30.901531	-46.154892	-51.860104
286.658142	-55.736755	-1.466300	-31.992344
287.113434	-16.005474	-18.841150	-14.613609
287.568634	-85.553062	-48.638626	54.850101
288.023804	-50.768921	-31.254961	-69.249901
288.478973	-23.453032	-43.671261	25.089924
288.934113	-53.252720	-56.090332	-19.578514
289.389130	-30.901531	-11.394178	-66.765289
289.844208	-3.594883	-28.771961	-49.376228
290.299164	-13.523120	-83.421501	-51.860104
290.754089	-60.705147	-123.198845	-64.280922
291.208984	-125.331871	-31.254961	-36.958721
291.663879	-73.127708	60.545017	-59.312222
292.118683	-20.970362	-68.512047	-7.167171
292.573456	-43.317894	-1.466300	67.245880
293.028198	-65.673828	-3.948147	35.011684
293.482849	-35.867680	-56.090332	64.766899
293.937561	-50.768921	-3.948147	-4.685324
294.392151	-70.642929	-21.323730	5.241426
294.846741	23.699129	-3.948147	-56.828167
295.301239	-73.127708	-13.876443	-22.061125
295.755737	-25.935804	5.978478	7.722886
296.210175	-35.867680	-51.122467	-44.408936
296.664581	-25.935804	-41.187870	-29.509449
297.118958	-50.768921	-11.394178	-41.925381
297.573242	-38.350979	-1.466300	-64.280922
298.027557	-63.189365	-115.738510	-24.543703
298.481812	-102.952950	25.826595	-34.475479
298.935974	-8.558860	13.422318	-27.026524
299.390137	-93.009499	40.708496	-84.159546
299.844238	-43.317894	-83.421501	-2.203446
300.298340	-40.834385	-48.638626	-79.189285
300.752350	3.850164	-61.058620	-7.167171
301.206360	28.660265	-103.306679	30.050945
301.660278	8.812963	-58.574493	5.241426
302.114197	60.897896	-3.948147	17.647551
302.568054	-1.113051	-100.820747	-12.131448
303.021881	-100.466896	-61.058620	-2.203446
303.475677	-105.438980	-80.936279	-56.828167
303.929413	-40.834385	-3.948147	10.204242
304.383118	-16.005474	-51.122467	-84.159546
304.836761	-102.952950	-36.221138	-94.101479
305.290375	-83.067757	-70.996605	-91.615799
305.743958	-145.231659	23.346029	-96.587257
306.197510	-83.067757	-108.279152	-54.344082
306.650970	-60.705147	-61.058620	64.766899
307.104431	-43.317894	-80.936279	-54.344082
307.557800	-137.768326	-33.738064	-2.203446
308.011169	-58.220898	-18.841150	27.570553
308.464508	-65.673828	-41.187870	-17.096010
308.917755	-33.384621	-21.323730	2.759996
309.371063	-50.768921	-11.394178	-36.958721
309.824219	-40.834385	-31.254961	42.451881
310.277374	-60.705147	10.941098	12.685359
310.730499	-25.935804	-63.542992	-22.061125
311.183563	-70.642929	20.865225	-64.280922
311.636597	-35.867680	-3.948147	-2.203446
312.089569	3.850164	-36.221138	-29.509449
312.542511	-78.097450	1.015307	-61.796516
312.995422	36.101257	43.188339	10.204242
313.448273	-11.040870	-21.323730	39.971874
313.901093	-13.523120	-88.392120	-44.408936
314.353882	-135.280899	-11.394178	7.722886
314.806580	3.850164	-1.466300	67.245880
315.259308	-58.220898	-26.289066	25.089924
315.711975	-23.453032	-66.027466	-9.649258
316.164581	-35.867680	-26.289066	62.287960
316.617126	-28.418549	-53.606281	-34.475479
317.069672	-63.189365	-51.122467	5.241426
317.522156	-13.523120	-73.481392	-12.131448
317.974579	-80.582550	-73.481392	-24.543703
318.427002	-11.040870	-13.876443	-24.543703
318.879333	-55.736755	-68.512047	-14.613609
319.331665	-83.067757	-143.097885	-76.704247
319.783936	-38.350979	-1.466300	2.759996
320.236176	-30.901531	-21.323730	-9.649258
320.688354	28.660265	-16.358812	-126.424461
321.140503	-23.453032	33.268078	-49.376228
321.592651	-33.384621	-26.289066	2.759996
322.044647	-83.067757	-1.466300	-49.376228
322.496704	-16.005474	-18.841150	-89.130363
322.948639	-95.495102	33.268078	2.759996
323.400604	-107.925255	-108.279152	-17.096010
323.852509	-110.411629	28.307194	-61.796516
324.304352	-53.252720	-6.430098	-22.061125
324.756165	13.775479	-43.671261	-104.045113
325.207916	-45.801373	20.865225	-14.613609
325.659668	-78.097450	-58.574493	-46.892597
326.111328	-30.901531	20.865225	-27.026524
326.562988	-11.040870	-13.876443	12.685359
327.014557	-38.350979	-73.481392	32.531364
327.466156	-83.067757	-63.542992	20.128357
327.917664	-38.350979	40.708496	35.011684
328.369110	53.459999	15.903437	15.166507
328.820557	-18.487799	-16.358812	62.287960
329.271942	-80.582550	-41.187870	-9.649258
329.723297	-8.558860	-80.936279	17.647551
330.174561	-75.612602	-80.936279	-14.613609
330.625854	-25.935804	-33.738064	10.204242
331.077026	11.294272	-38.704453	-46.892597
331.528229	6.331683	-56.090332	-29.509449
331.979370	-18.487799	-36.221138	-17.096010
332.430450	-13.523120	1.015307	-24.543703
332.881500	-58.220898	-6.430098	-46.892597
333.332489	6.331683	-80.936279	-4.685324
333.783478	-25.935804	-75.966293	-31.992344
334.234406	11.294272	38.228416	2.759996
334.685303	8.812963	3.496945	-44.408936
335.136078	-40.834385	23.346029	-19.578514
335.586914	-16.005474	-43.671261	-39.442066
336.037659	-73.127708	-26.289066	7.722886
336.488342	-25.935804	-18.841150	-4.685324
336.939026	80.727852	-75.966293	10.204242
337.389648	-25.935804	-31.254961	30.050945
337.840240	-110.411629	10.941098	0.278327
338.290771	-28.418549	3.496945	-46.892597
338.741272	-78.097450	-13.876443	5.241426
339.191681	-13.523120	-18.841150	-49.376228
339.642120	13.775479	-75.966293	-54.344082
340.092468	36.101257	-83.421501	25.089924
340.542816	-11.040870	-63.542992	-29.509449
340.993103	-58.220898	43.188339	-7.167171
341.443329	18.737444	1.015307	-14.613609
341.893555	-38.350979	-21.323730	10.204242
342.343689	26.179684	-13.876443	-17.096010
342.793793	38.581429	13.422318	-133.886169
343.243866	-20.970362	5.978478	-39.442066
343.693878	-85.553062	50.627647	-22.061125
344.143890	-43.317894	-36.221138	-12.131448
344.593842	-58.220898	-80.936279	20.128357
345.043732	-11.040870	-8.912018	-24.543703
345.493591	-8.558860	1.015307	-9.649258
345.943359	-28.418549	-6.430098	-91.615799
346.393158	-28.418549	-28.771961	27.570553
346.842896	-1.113051	-6.430098	54.850101
347.292542	26.179684	-8.912018	-12.131448
347.742218	6.331683	-28.771961	-2.203446
348.191803	55.939449	-85.906693	79.638962
348.641357	-65.673828	-33.738064	-17.096010
349.090881	-35.867680	13.422318	-49.376228
349.540314	-1.113051	-16.358812	-14.613609
349.989777	18.737444	35.748230	32.531364
350.439148	6.331683	-61.058620	-81.674423
350.888489	-18.487799	1.015307	32.531364
351.337799	-11.040870	-33.738064	-14.613609
351.787048	-20.970362	-73.481392	-4.685324
352.236267	-25.935804	-11.394178	49.891148
352.685425	-125.331871	-1.466300	-31.992344
353.134552	-50.768921	-100.820747	-27.026524
353.583649	-68.158394	-93.363304	-56.828167
354.032684	-30.901531	-21.323730	37.491760
354.481659	-83.067757	43.188339	-44.408936
354.930634	-50.768921	-51.122467	-49.376228
355.379517	-75.612602	5.978478	22.609192
355.828430	-3.594883	-28.771961	-94.101479
356.277222	-107.925255	50.627647	-19.578514
356.726013	-3.594883	-80.936279	-56.828167
357.174774	1.368541	-33.738064	-41.925381
357.623444	-23.453032	-23.806414	12.685359
358.072113	-3.594883	67.982033	25.089924
358.520721	55.939449	40.708496	-4.685324
358.969299	73.292419	1.015307	-7.167171
359.417786	-13.523120	43.188339	10.204242
359.866302	-40.834385	-33.738064	-9.649258
360.314697	-45.801373	40.708496	-17.096010
360.763123	16.256447	23.346029	42.451881
361.211456	-58.220898	-23.806414	-7.167171
361.659760	-38.350979	1.015307	-12.131448
362.108032	-35.867680	30.787687	-41.925381
362.556244	-11.040870	23.346029	-69.249901
363.004456	-50.768921	-103.306679	12.685359
363.452576	-13.523120	-13.876443	-76.704247
363.900696	-18.487799	-1.466300	-29.509449
364.348663	-48.285095	5.978478	7.722886
364.796722	-70.642929	67.982033	-44.408936
365.244690	-80.582550	-6.430098	-96.587257
365.692596	-35.867680	-38.704453	-12.131448
366.140472	-43.317894	-23.806414	-61.796516
366.588287	-3.594883	-48.638626	-84.159546
367.036102	-20.970362	-33.738064	-27.026524
367.483826	33.620987	48.147984	-24.543703
367.931549	-85.553062	-36.221138	-51.860104
368.379181	-157.672424	-23.806414	-4.685324
368.826843	-28.418549	-21.323730	-2.203446
369.274384	-55.736755	-23.806414	-27.026524
369.721924	-90.523872	-6.430098	-41.925381
370.169403	8.812963	-56.090332	67.245880
370.616821	-40.834385	-6.430098	-49.376228
371.064270	-11.040870	-105.792862	-59.312222
371.511566	-50.768921	-11.394178	79.638962
371.958923	21.218338	-48.638626	-59.312222
372.406158	-1.113051	-8.912018	17.647551
372.853424	-58.220898	-85.906693	0.278327
373.300568	-102.952950	-70.996605	-17.096010
373.747711	-83.067757	-83.421501	67.245880
374.194794	-80.582550	30.787687	-17.096010
374.641846	-33.384621	-58.574493	22.609192
375.088898	-35.867680	25.826595	-54.344082
375.535828	-1.113051	30.787687	-31.992344
375.982758	11.294272	25.826595	-24.543703
376.429596	-35.867680	-21.323730	82.117317
376.876465	-48.285095	15.903437	17.647551
377.323242	16.256447	48.147984	-31.992344
377.769989	6.331683	-33.738064	-64.280922
378.216675	-28.418549	3.496945	-51.860104
378.663330	-55.736755	-18.841150	-27.026524
379.109985	16.256447	-11.394178	27.570553
379.556519	-40.834385	23.346029	-9.649258
380.003052	-13.523120	-6.430098	-29.509449
380.449524	-8.558860	23.346029	-41.925381
380.895996	-35.867680	-16.358812	27.570553
381.342377	-33.384621	-23.806414	-49.376228
381.788727	-8.558860	-110.765541	-44.408936
382.235046	-25.935804	-23.806414	-14.613609
382.681274	-25.935804	-8.912018	5.241426
383.127533	-13.523120	40.708496	-24.543703
383.573669	-30.901531	8.459772	-22.061125
384.019836	-45.801373	-8.912018	-14.613609
384.465912	-33.384621	-43.671261	-69.249901
384.911957	-65.673828	-6.430098	-24.543703
385.357971	-45.801373	-6.430098	-64.280922
385.803925	-120.358078	-13.876443	-39.442066
386.249847	36.101257	-13.876443	-7.167171
386.695679	-6.076819	-70.996605	-84.159546
387.141541	-11.040870	13.422318	-2.203446
387.587311	-60.705147	-68.512047	42.451881
388.033051	-23.453032	-28.771961	10.204242
388.478729	-85.553062	5.978478	-49.376228
388.924408	-23.453032	-28.771961	-36.958721
389.369995	-45.801373	-1.466300	-14.613609
389.815552	-68.158394	-63.542992	-34.475479
390.261078	-28.418549	-23.806414	32.531364
390.706543	-70.642929	63.024170	-14.613609
391.152008	11.294272	-1.466300	-41.925381
391.597351	26.179684	8.459772	-31.992344
392.042725	-25.935804	58.065895	-46.892597
392.487976	23.699129	-33.738064	-4.685324
392.933289	-16.005474	8.459772	-19.578514
393.378479	-70.642929	92.765587	-14.613609
393.823639	33.620987	48.147984	-34.475479
394.268768	-8.558860	13.422318	54.850101
394.713837	23.699129	43.188339	116.803123
395.158905	-38.350979	-33.738064	20.128357
395.603851	-63.189365	43.188339	39.971874
396.048798	-30.901531	40.708496	39.971874
396.493683	-100.466896	13.422318	52.370743
396.938568	-80.582550	3.496945	15.166507
397.383392	-63.189365	-51.122467	7.722886
397.828156	-58.220898	35.748230	2.759996
398.272888	-35.867680	15.903437	49.891148
398.717560	1.368541	-46.154892	0.278327
399.162201	-3.594883	105.153397	20.128357
399.606781	-80.582550	87.809639	-27.026524
400.051361	-20.970362	10.941098	57.329487
400.495819	-45.801373	50.627647	42.451881
400.940308	-48.285095	25.826595	42.451881
401.384705	-43.317894	97.720993	37.491760
401.829102	-33.384621	65.503220	96.985069
402.273438	-68.158394	55.586540	-12.131448
402.717682	-35.867680	132.397827	121.756683
403.161926	-58.220898	97.720993	42.451881
403.606110	-127.819008	97.720993	87.073738
404.050293	-75.612602	117.538803	49.891148
404.494385	-55.736755	159.630005	42.451881
404.938446	-68.158394	107.630714	79.638962
405.382477	-93.009499	149.728790	134.138550
405.826447	-90.523872	122.492165	106.894913
406.270386	-125.331871	137.349976	168.794571
406.714233	-6.076819	147.253204	163.844971
407.158081	-35.867680	176.953232	161.369949
407.601868	-35.867680	189.323868	220.741745
408.045624	-13.523120	300.548859	186.115173
408.489319	-28.418549	273.378906	277.586090
408.933014	-60.705147	265.966888	200.957489
409.376617	-43.317894	305.487671	156.419617
409.820190	-40.834385	219.003494	220.741745
410.263702	-3.594883	300.548859	203.430908
410.707184	-33.384621	458.397217	319.568207
411.150635	-20.970362	381.988373	324.505493
411.594025	-28.418549	409.111511	326.973877
412.037384	-60.705147	463.323639	349.185822
412.480682	-38.350979	527.333923	371.389832
412.923981	-30.901531	547.016846	437.955566
413.367126	-85.553062	515.029236	410.844513
413.810333	-90.523872	515.029236	492.143494
414.253479	-50.768921	588.823364	484.756927
414.696533	-45.801373	647.799622	531.524414
415.139587	-16.005474	723.900391	531.524414
415.582581	-28.418549	790.112305	511.836975
416.025543	8.812963	812.168884	624.959839
416.468414	-8.558860	844.015747	669.172913
416.911285	-53.252720	897.877380	710.902893
417.354065	-20.970362	951.697693	686.359009
417.796875	-40.834385	1103.154419	755.059937
418.239594	-58.220898	1149.505493	906.939087
418.682281	-90.523872	1127.553345	828.591492
419.124908	33.620987	1283.515259	924.065979
419.567505	-1.113051	1392.981812	980.310669
420.010071	11.294272	1409.995850	1046.280884
420.452545	1.368541	1528.989258	1092.667969
420.895020	-60.705147	1698.667969	1119.509888
421.337372	-70.642929	1715.616089	1241.396362
421.779785	16.256447	1858.323975	1268.184448
422.222107	-157.672424	2003.198853	1431.144043
422.664368	-33.384621	2152.642334	1503.998657
423.106628	-68.158394	2357.107178	1642.236572
423.548798	-33.384621	2277.783203	1712.476196
423.990967	-13.523120	2517.943115	1809.258179
424.433044	33.620987	2702.434570	1818.929932
424.875092	18.737444	2805.303223	1942.147827
425.317078	-16.005474	2996.391846	2115.794922
425.759064	-53.252720	3153.755615	2178.414551
426.200989	-58.220898	3256.145508	2209.707275
426.642853	-11.040870	3543.708252	2370.809082
427.084686	-11.040870	3714.437988	2440.448730
427.526459	-11.040870	3761.813477	2637.073242
427.968201	-68.158394	4088.129395	2809.375244
428.409912	-68.158394	4239.130371	2873.907471
428.851563	-53.252720	4688.552246	3060.090088
429.293121	-43.317894	4559.322266	3172.105225
429.734711	26.179684	5009.817871	3314.920166
430.176239	-38.350979	5171.285645	3583.340088
430.617706	-85.553062	5421.239746	3839.233398
431.059113	16.256447	5721.890625	3803.730225
431.500488	-1.113051	5954.438965	4018.936523
431.941833	-18.487799	6267.678223	4302.071289
432.383087	-53.252720	6637.903809	4391.578613
432.824341	-80.582550	6801.841309	4544.517090
433.265533	-13.523120	7393.491211	4880.253906
433.706726	-70.642929	7694.031250	5077.013184
434.147827	11.294272	7973.304199	5362.193359
434.588867	-33.384621	8283.934570	5546.493164
435.029877	1.368541	8839.450195	5914.246582
435.470825	-40.834385	9279.534180	6123.229980
435.911804	-30.901531	9661.788086	6174.260742
436.352661	26.179684	10286.150391	6704.204102
436.793518	-16.005474	10436.777344	6909.562500
437.234283	-78.097450	11040.053711	7321.587402
437.675049	-63.189365	11683.439453	7693.350586
438.115723	-25.935804	12022.023438	7906.293945
438.556396	-65.673828	12752.730469	8244.466797
438.997040	-16.005474	13297.326172	8745.586914
439.437561	-25.935804	13761.145508	8916.003906
439.878113	-48.285095	14265.907227	9394.325195
440.318573	-25.935804	14745.538086	9792.071289
440.759033	6.331683	15612.750977	10114.439453
441.199341	60.897896	16631.337891	10606.790039
441.639709	33.620987	16852.341797	10842.289063
442.079956	16.256447	17552.203125	11397.133789
442.520264	-38.350979	18210.230469	11497.611328
442.960510	-90.523872	19025.666016	12230.428711
443.400604	3.850164	19056.277344	12780.887695
443.840759	-40.834385	20038.470703	12794.184570
444.280762	-50.768921	20916.712891	13522.071289
444.720825	38.581429	21493.445313	13939.145508
445.160767	-78.097450	22552.226563	14423.751953
445.600739	38.581429	23276.404297	14909.716797
446.040558	3.850164	24045.992188	15375.197266
446.480438	-120.358078	24191.691406	15535.340820
446.920258	-23.453032	25649.195313	16116.170898
447.359955	-23.453032	26243.246094	16656.949219
447.799713	-18.487799	27324.369141	17407.244141
448.239319	-6.076819	27584.369141	17472.841797
448.678955	21.218338	29025.664063	18515.623047
449.118500	-55.736755	30599.226563	19138.720703
449.558014	-20.970362	30367.767578	19442.707031
449.997498	-6.076819	31833.906250	20153.832031
450.436951	-33.384621	32551.855469	20635.593750
450.876343	-28.418549	33522.246094	21514.736328
451.315674	-70.642929	34719.765625	21826.419922
451.754974	63.377037	35098.664063	22100.960938
452.194183	-80.582550	36186.125000	22797.962891
452.633392	-20.970362	37160.773438	23480.689453
453.072510	-50.768921	37619.707031	23928.375000
453.511688	-43.317894	38323.511719	24372.126953
453.950684	-58.220898	39739.875000	24940.193359
454.389740	-58.220898	40339.507813	25243.320313
454.828735	-85.553062	41083.210938	26049.667969
455.267639	-45.801373	41957.687500	26196.015625
455.706543	-53.252720	42553.394531	26388.988281
456.145325	-18.487799	44027.867188	27699.292969
456.584137	-50.768921	43970.449219	28286.337891
457.022858	6.331683	44948.453125	28335.271484
457.461578	8.812963	46184.953125	29369.964844
457.900208	26.179684	46794.730469	29447.863281
458.338867	-23.453032	47153.171875	29750.570313
458.777405	13.775479	47987.363281	30489.517578
459.215912	-45.801373	48287.859375	30707.613281
459.654388	93.118141	50180.179688	31855.484375
460.092773	-68.158394	50403.960938	32146.720703
460.531189	-68.158394	50457.988281	32468.984375
460.969513	43.541321	51692.453125	33290.750000
461.407806	16.256447	51998.921875	33279.656250
461.846008	-68.158394	53203.667969	34770.078125
462.284241	-35.867680	53278.386719	34446.484375
462.722351	13.775479	53586.640625	34812.183594
463.160461	23.699129	54465.699219	35696.050781
463.598541	-112.897980	55346.632813	36542.019531
464.036530	-30.901531	56185.351563	37100.285156
464.474518	-23.453032	56449.648438	37357.386719
464.912384	-137.768326	57829.968750	38502.953125
465.350281	-35.867680	57188.179688	38434.011719
465.788086	-38.350979	57763.773438	38883.636719
466.225891	-20.970362	57710.125000	39750.410156
466.663605	-40.834385	58750.355469	40514.628906
467.101318	-75.612602	58442.527344	40683.953125
467.539001	-18.487799	58647.316406	40781.164063
467.976563	-93.009499	60143.578125	41590.394531
468.414124	-132.793457	59670.589844	41476.226563
468.851593	-58.220898	59386.542969	42069.691406
469.289063	-16.005474	60225.542969	42339.593750
469.726440	-45.801373	59768.968750	42671.191406
470.163849	21.218338	59110.031250	42820.250000
470.601135	-100.466896	60560.636719	43536.777344
471.038422	-33.384621	59939.796875	43035.281250
471.475677	-28.418549	59131.863281	43501.285156
471.912811	-11.040870	59448.406250	44063.085938
472.350006	-53.252720	59228.164063	43600.738281
472.787048	-30.901531	58621.625000	43506.015625
473.224121	-13.523120	57640.140625	42981.437500
473.661072	-13.523120	57549.878906	43295.960938
474.098053	13.775479	57268.984375	42692.128906
474.534943	-33.384621	56923.460938	43383.171875
474.971802	-3.594883	56508.355469	43204.210938
475.408630	-18.487799	56015.925781	43110.289063
475.845367	-8.558860	54779.796875	42334.972656
476.282104	-1.113051	54670.992188	42104.226563
476.718750	-95.495102	53384.085938	41544.703125
477.155426	-8.558860	53521.214844	41656.695313
477.591949	-25.935804	52374.875000	41576.683594
478.028503	21.218338	51701.968750	40690.730469
478.464966	-45.801373	51841.976563	40679.429688
478.901428	-117.871269	50500.097656	39667.535156
479.337860	-6.076819	50014.476563	39795.226563
479.774170	-13.523120	49114.621094	38939.351563
480.210510	-30.901531	47607.164063	38489.609375
480.646698	-95.495102	47709.093750	38091.785156
481.082947	-11.040870	46543.640625	37419.460938
481.519073	-33.384621	45835.472656	37016.082031
481.955200	33.620987	44618.835938	36083.597656
482.391266	8.812963	44116.550781	35762.488281
482.827301	3.850164	43393.308594	35179.972656
483.263306	21.218338	42439.789063	34597.207031
483.699188	-30.901531	41481.468750	34051.808594
484.135101	18.737444	40092.093750	33308.511719
484.570923	-20.970362	39296.992188	32520.087891
485.006744	-83.067757	38813.007813	31706.498047
485.442413	-20.970362	37471.117188	30589.666016
485.878174	-13.523120	36850.574219	30473.939453
486.313782	-28.418549	36132.976563	29699.375000
486.749390	21.218338	35198.351563	29096.216797
487.184998	-28.418549	33957.093750	28368.638672
487.620453	-48.285095	33144.886719	27521.480469
488.055939	28.660265	32027.337891	27099.341797
488.491333	-20.970362	30875.167969	25500.140625
488.926727	-48.285095	30407.832031	25633.033203
489.362030	-90.523872	29306.080078	24500.263672
489.797302	23.699129	28745.281250	24175.582031
490.232513	-63.189365	27722.183594	23189.841797
490.667755	-38.350979	26764.695313	22553.775391
491.102905	38.581429	26245.464844	21934.019531
491.537964	16.256447	25066.943359	21591.541016
491.973022	-53.252720	24622.462891	20626.830078
492.407990	-23.453032	23662.121094	19967.787109
492.842957	-33.384621	22983.501953	19611.138672
493.277832	3.850164	22075.248047	19079.683594
493.712738	55.939449	21298.205078	18522.179688
494.147491	3.850164	20684.437500	17639.009766
494.582275	-1.113051	20023.148438	17179.812500
495.017029	-60.705147	19340.560547	16718.222656
495.451660	-6.076819	18920.714844	16074.550781
495.886292	-83.067757	18559.992188	15649.375000
496.320831	-38.350979	17611.236328	14914.111328
496.755402	-40.834385	16961.728516	14905.322266
497.189850	-80.582550	16618.207031	14174.953125
497.624298	-65.673828	15908.684570	14003.078125
498.058655	-20.970362	15252.952148	13345.305664
498.493042	-33.384621	14609.209961	13015.694336
498.927368	-80.582550	14334.161133	12470.339844
499.361572	11.294272	14149.171875	12112.581055
499.795807	-43.317894	13471.921875	11640.407227
500.229919	-3.594883	13073.904297	11249.659180
500.664063	-33.384621	12641.861328	10911.750000
501.098083	-38.350979	12295.540039	10512.490234
501.532104	-30.901531	11832.764648	10112.187500
501.966064	-73.127708	11408.964844	9810.124023
502.399994	-20.970362	10623.166992	9629.489258
502.833893	-93.009499	10526.632813	9475.771484
503.267700	-23.453032	10418.799805	9022.690430
503.701477	11.294272	9826.589844	8734.218750
504.135193	-43.317894	9625.642578	8554.468750
504.568909	-1.113051	9306.709961	8121.178711
505.002502	-58.220898	9009.750977	7920.020020
505.436127	-55.736755	8445.814453	7503.012695
505.869629	-48.285095	8452.649414	7438.739258
506.303162	-28.418549	7941.286133	7043.212891
506.736603	-73.127708	7927.562012	6877.281250
507.169983	-6.076819	7565.640625	6669.560547
507.603363	-58.220898	7398.085449	6378.174316
508.036621	-11.040870	6972.480957	6160.345703
508.469940	-3.594883	6693.343262	5946.778320
508.903107	-25.935804	6559.322266	5877.056152
509.336304	-63.189365	6286.215820	5534.837402
509.769379	-13.523120	6010.184082	5544.162109
510.202484	-95.495102	5933.527832	5331.837891
510.635529	-63.189365	5714.907715	5067.651367
511.068481	-60.705147	5521.540527	5009.122070
511.501434	-83.067757	5283.480469	4704.291504
511.934265	-85.553062	5199.344238	4626.782227
512.367126	-18.487799	5023.867188	4532.759766
512.799927	-13.523120	4733.160645	4087.427979
513.232605	-125.331871	4535.809570	3962.220703
513.665344	-75.612602	4368.730469	4018.936523
514.097961	1.368541	4406.403809	3905.475098
514.530579	-68.158394	4114.097656	3772.950439
514.963135	-8.558860	4118.818359	3649.742920
515.395691	36.101257	3946.375488	3341.080322
515.828064	-18.487799	3780.757813	3317.298340
516.260498	36.101257	3702.591064	3283.994141
516.692871	-58.220898	3467.737305	3100.620850
517.125183	6.331683	3298.975342	2995.682617
517.557373	-11.040870	3332.274658	3007.613525
517.989624	-13.523120	3158.520264	2957.495605
518.421753	-122.844856	3101.328857	2687.360840
518.853943	-127.819008	3110.863037	2684.967041
519.286072	-120.358078	2781.390625	2622.700684
519.718018	-16.005474	2733.546143	2483.646973
520.150024	-35.867680	2697.647217	2296.305420
520.581909	18.737444	2635.389648	2310.730713
521.013855	26.179684	2465.163330	2373.210938
521.445679	-40.834385	2445.962402	2255.422607
521.877502	21.218338	2357.107178	2021.780273
522.309204	13.775479	2325.867188	2055.541016
522.740906	50.980453	2265.758301	1995.244507
523.172546	-85.553062	2094.824219	1942.147827
523.604187	-43.317894	2058.667969	1901.095459
524.035767	-6.076819	2032.143799	1847.939087
524.467224	-33.384621	2032.143799	1717.317749
524.898682	-63.189365	1938.036133	1622.849365
525.330078	-23.453032	1954.934937	1605.881592
525.761475	-58.220898	1725.298950	1673.730835
526.192749	-1.113051	1734.980957	1474.864990
526.624023	-28.418549	1691.403198	1367.947266
527.055237	-125.331871	1543.547241	1467.579834
527.486389	-35.867680	1555.677002	1336.329346
527.917542	-18.487799	1366.237915	1477.293335
528.348572	-28.418549	1531.415894	1121.949707
528.779663	-38.350979	1356.510376	1229.216797
529.210571	-117.871269	1310.288208	1231.652954
529.641541	-58.220898	1268.907715	1221.907959
530.072388	-28.418549	1237.248047	1134.146973
530.503235	-83.067757	1183.640137	1065.815674
530.934082	-63.189365	1105.594727	990.087952
531.364746	-115.384575	1195.827026	1002.307495
531.795532	-45.801373	1173.888794	1014.524902
532.226135	13.775479	1073.865112	1019.411438
532.656738	-28.418549	1117.795044	965.642456
533.087280	-60.705147	1083.629639	980.310669
533.517822	-75.612602	978.592407	880.016846
533.948242	-25.935804	1005.476868	808.990784
534.378662	-90.523872	978.592407	860.430847
534.809082	-100.466896	985.925415	755.059937
535.239319	-78.097450	878.296082	894.703186
535.669617	-3.594883	839.117065	789.384399
536.099792	-35.867680	880.744080	742.797058
536.529968	-83.067757	841.566467	730.531738
536.960083	-13.523120	802.366699	607.757935
537.390137	-53.252720	795.014465	634.787476
537.820190	-18.487799	799.916260	536.445496
538.250183	-38.350979	723.900391	620.045532
538.680115	-6.076819	743.525452	644.613586
539.109985	-25.935804	748.430908	676.539063
539.539795	-53.252720	753.335815	688.813904
539.969543	-100.466896	689.542847	696.177612
540.399292	-30.901531	669.902161	629.873901
540.828979	18.737444	738.619629	600.384399
541.258606	-6.076819	768.048706	570.881836
541.688171	-93.009499	637.973755	580.717346
542.117737	26.179684	608.487976	563.504028
542.547302	-18.487799	539.636475	529.063904
542.976685	-53.252720	564.234497	578.258667
543.406128	-43.317894	534.715698	499.529236
543.835388	-20.970362	618.318054	511.836975
544.264771	-88.038345	610.945496	499.529236
544.693970	-13.523120	480.563416	408.379395
545.123230	-13.523120	465.786804	469.981262
545.552307	-38.350979	529.794617	501.990997
545.981506	-55.736755	576.530151	447.811310
546.410583	68.334869	534.715698	425.633881
546.839539	-75.612602	524.873230	359.055267
547.268555	-80.582550	529.794617	474.906799
547.697449	-23.453032	547.016846	433.027191
548.126282	-73.127708	507.645233	410.844513
548.555054	-80.582550	428.830322	415.774719
548.983887	-63.189365	377.055542	356.588013
549.412598	-16.005474	359.787933	346.718170
549.841309	58.418789	389.386749	314.630646
550.269958	13.775479	335.111786	339.314819
550.698486	-65.673828	478.100861	292.406494
551.127075	-30.901531	337.579865	312.161652
551.555481	-13.523120	409.111511	378.789429
551.983948	-50.768921	433.759033	294.876251
552.412292	13.775479	381.988373	255.348892
552.840698	-35.867680	374.588989	272.645233
553.268860	-45.801373	344.983429	393.586212
553.697205	-11.040870	416.506744	245.463104
554.125366	-48.285095	303.018311	292.406494
554.553467	43.541321	320.301453	270.174561
554.981628	-23.453032	307.956787	225.686768
555.409607	13.775479	303.018311	228.159195
555.837646	16.256447	330.175415	326.973877
556.265564	-58.220898	293.140076	287.466797
556.693481	6.331683	283.260284	205.904221
557.121338	26.179684	216.530701	275.115662
557.549133	-23.453032	288.200439	292.406494
557.976929	-33.384621	280.790039	230.631516
558.404602	-50.768921	290.670227	255.348892
558.832275	28.660265	256.082794	200.957489
559.259888	65.856071	303.018311	257.820129
559.687439	-48.285095	256.082794	218.269043
560.114929	-33.384621	236.309967	255.348892
560.542419	21.218338	231.365677	297.345917
560.969788	-53.252720	223.948639	205.904221
561.397156	-23.453032	246.197235	183.641068
561.824524	-38.350979	261.025085	208.377304
562.251770	-100.466896	159.630005	235.575714
562.679016	-11.040870	248.668701	213.323441
563.106140	-18.487799	172.004166	161.369949
563.533264	-60.705147	288.200439	284.996735
563.960327	6.331683	248.668701	225.686768
564.387329	-8.558860	152.204285	213.323441
564.814331	-11.040870	189.323868	166.319748
565.241272	-40.834385	216.530701	104.417709
565.668213	-33.384621	189.323868	104.417709
566.094971	-40.834385	219.003494	116.803123
566.521790	-3.594883	152.204285	109.372154
566.948425	-73.127708	199.218674	87.073738
567.375183	-100.466896	248.668701	218.269043
567.801819	-18.487799	233.837875	196.010513
568.228394	8.812963	144.777512	131.662323
568.654846	-50.768921	204.165405	198.484116
569.081421	1.368541	204.165405	200.957489
569.507874	-58.220898	204.165405	156.419617
569.934265	-50.768921	216.530701	196.010513
570.360596	46.021179	246.197235	205.904221
570.786865	16.256447	216.530701	69.724754
571.213074	-18.487799	134.874023	225.686768
571.639282	-33.384621	117.538803	106.894913
572.065430	3.850164	162.104950	104.417709
572.491516	-28.418549	87.809639	205.904221
572.917603	-53.252720	129.921524	158.894836
573.343567	-65.673828	219.003494	64.766899
573.769531	-6.076819	238.781830	62.287960
574.195435	-38.350979	256.082794	124.233185
574.621277	-120.358078	167.054825	126.709702
575.047119	-78.097450	85.331512	69.724754
575.472839	-53.252720	263.495972	32.531364
575.898560	16.256447	154.679535	163.844971
576.324158	-13.523120	149.728790	116.803123
576.749817	-28.418549	189.323868	96.985069
577.175293	23.699129	110.107918	77.160629
577.600830	16.256447	194.271545	59.808777
578.026306	-65.673828	201.692154	129.186142
578.451721	-68.158394	149.728790	188.589188
578.877136	55.939449	90.287666	114.326187
579.302429	-3.594883	70.460876	101.940262
579.727661	-68.158394	100.198608	82.117317
580.152832	-105.438980	134.874023	62.287960
580.578064	-58.220898	95.243271	74.682060
581.003113	-78.097450	75.418251	109.372154
581.428223	-100.466896	40.708496	171.269272
581.853271	-16.005474	95.243271	62.287960
582.278198	-88.038345	25.826595	72.203392
582.703125	-25.935804	107.630714	111.849289
583.127930	-16.005474	149.728790	134.138550
583.552795	-65.673828	152.204285	176.218262
583.977539	-60.705147	149.728790	67.245880
584.402283	-40.834385	139.825974	114.326187
584.826965	50.980453	82.853424	99.462715
585.251587	-43.317894	167.054825	124.233185
585.676208	-13.523120	97.720993	116.803123
586.100647	55.939449	122.492165	42.451881
586.525208	-70.642929	107.630714	64.766899
586.949524	-63.189365	137.349976	146.518021
587.373962	11.294272	97.720993	121.756683
587.798218	-43.317894	142.301865	44.931786
588.222534	55.939449	95.243271	104.417709
588.646729	16.256447	30.787687	74.682060
589.070984	23.699129	87.809639	104.417709
589.495117	-25.935804	28.307194	126.709702
589.919128	-33.384621	167.054825	54.850101
590.343201	-16.005474	55.586540	42.451881
590.767151	-25.935804	1.015307	27.570553
591.191101	-23.453032	90.287666	64.766899
591.614990	13.775479	58.065895	79.638962
592.038818	-63.189365	117.538803	109.372154
592.462524	-100.466896	95.243271	126.709702
592.886292	-135.280899	137.349976	-14.613609
593.310059	-35.867680	45.668213	54.850101
593.733582	-93.009499	90.287666	44.931786
594.157227	-88.038345	23.346029	64.766899
594.580750	-33.384621	85.331512	44.931786
595.004272	-3.594883	72.939613	87.073738
595.427673	-11.040870	112.584892	77.160629
595.851074	-70.642929	159.630005	59.808777
596.274353	-13.523120	102.675987	77.160629
596.697632	-102.952950	33.268078	67.245880
597.120911	-53.252720	30.787687	72.203392
597.544067	36.101257	58.065895	96.985069
597.967224	-65.673828	60.545017	25.089924
598.390320	-6.076819	35.748230	44.931786
598.813354	3.850164	92.765587	126.709702
599.236328	-80.582550	75.418251	32.531364
599.659241	-80.582550	82.853424	141.566483
600.082153	-18.487799	23.346029	72.203392
600.505005	-8.558860	95.243271	64.766899
600.927795	11.294272	33.268078	62.287960
601.350525	23.699129	18.384315	39.971874
601.773254	-40.834385	87.809639	37.491760
602.195862	-58.220898	92.765587	20.128357
602.618408	-38.350979	129.921524	111.849289
603.040955	-11.040870	63.024170	89.551659
603.463440	-65.673828	-11.394178	62.287960
603.885925	-35.867680	72.939613	-12.131448
604.308350	65.856071	70.460876	57.329487
604.730652	-38.350979	-1.466300	92.029610
605.152893	-40.834385	60.545017	129.186142
605.575195	-25.935804	120.015465	44.931786
605.997375	-48.285095	58.065895	-96.587257
606.419495	-85.553062	65.503220	79.638962
606.841553	-25.935804	82.853424	99.462715
607.263672	-8.558860	55.586540	39.971874
607.685608	-43.317894	25.826595	124.233185
608.107605	-63.189365	53.107075	12.685359
608.529480	8.812963	50.627647	39.971874
608.951294	-3.594883	117.538803	49.891148
609.373108	-90.523872	48.147984	12.685359
609.794800	46.021179	35.748230	27.570553
610.216553	-6.076819	38.228416	17.647551
610.638123	-30.901531	60.545017	27.570553
611.059753	-135.280899	129.921524	7.722886
611.481262	-45.801373	134.874023	42.451881
611.902832	-1.113051	53.107075	12.685359
612.324219	-70.642929	117.538803	101.940262
612.745605	-25.935804	18.384315	57.329487
613.166931	-60.705147	181.901764	22.609192
613.588196	-18.487799	137.349976	37.491760
614.009460	-90.523872	80.375092	-7.167171
614.430664	-117.871269	-23.806414	47.411453
614.851807	-65.673828	30.787687	64.766899
615.272827	-63.189365	50.627647	49.891148
615.693909	-38.350979	40.708496	25.089924
616.114929	-45.801373	38.228416	106.894913
616.535889	-25.935804	38.228416	27.570553
616.956787	-80.582550	43.188339	77.160629
617.377563	-95.495102	115.061897	-12.131448
617.798340	-60.705147	58.065895	104.417709
618.219055	-35.867680	139.825974	17.647551
618.639832	-90.523872	58.065895	52.370743
619.060364	-25.935804	-1.466300	27.570553
619.481018	-80.582550	100.198608	10.204242
619.901611	-23.453032	10.941098	-2.203446
620.322083	-35.867680	85.331512	54.850101
620.742493	-8.558860	-11.394178	5.241426
621.162842	-18.487799	120.015465	17.647551
621.583191	-75.612602	-8.912018	52.370743
622.003418	-105.438980	82.853424	47.411453
622.423706	-85.553062	63.024170	87.073738
622.843872	1.368541	77.896660	44.931786
623.264038	-25.935804	77.896660	12.685359
623.684143	-93.009499	8.459772	67.245880
624.104126	-43.317894	87.809639	-22.061125
624.524170	-80.582550	-51.122467	7.722886
624.944031	-18.487799	50.627647	17.647551
625.364014	-125.331871	43.188339	32.531364
625.783752	-45.801373	35.748230	-22.061125
626.203552	-30.901531	-1.466300	-59.312222
626.623230	28.660265	18.384315	27.570553
627.042969	31.140745	-3.948147	39.971874
627.462585	-88.038345	5.978478	-2.203446
627.882141	-43.317894	35.748230	-17.096010
628.301697	-35.867680	5.978478	-2.203446
628.721130	-20.970362	38.228416	-2.203446
629.140625	21.218338	-8.912018	15.166507
629.559998	-125.331871	40.708496	-34.475479
629.979309	-25.935804	-3.948147	37.491760
630.398560	-16.005474	-11.394178	-22.061125
630.817810	-1.113051	65.503220	22.609192
631.237000	-53.252720	33.268078	-17.096010
631.656067	-43.317894	82.853424	47.411453
632.075195	-95.495102	30.787687	-24.543703
632.494202	-58.220898	-21.323730	62.287960
632.913208	-33.384621	48.147984	10.204242
633.332092	-16.005474	13.422318	30.050945
633.750977	-50.768921	8.459772	-14.613609
634.169739	-33.384621	-16.358812	10.204242
634.588562	-16.005474	-8.912018	-9.649258
635.007263	1.368541	149.728790	-2.203446
635.425964	-120.358078	28.307194	12.685359
635.844543	-75.612602	38.228416	0.278327
636.263123	-1.113051	58.065895	72.203392
636.681641	-80.582550	43.188339	32.531364
637.100037	-6.076819	95.243271	-7.167171
637.518494	-58.220898	-23.806414	-17.096010
637.936829	-70.642929	-46.154892	64.766899
638.355164	-78.097450	65.503220	-4.685324
638.773438	-100.466896	-3.948147	69.724754
639.191650	-65.673828	-18.841150	7.722886
639.609863	-35.867680	-13.876443	15.166507
640.027893	-18.487799	-70.996605	-24.543703
640.445984	1.368541	-11.394178	17.647551
640.863953	-48.285095	23.346029	25.089924
641.281921	-117.871269	-33.738064	-64.280922
641.699829	-3.594883	-58.574493	-22.061125
642.117676	-45.801373	3.496945	20.128357
642.535461	-6.076819	80.375092	-4.685324
642.953247	-80.582550	-16.358812	30.050945
643.370972	-16.005474	-33.738064	52.370743
643.788635	1.368541	43.188339	17.647551
644.206177	-45.801373	-70.996605	-76.704247
644.623718	-33.384621	-58.574493	-12.131448
645.041260	-6.076819	5.978478	49.891148
645.458618	-25.935804	60.545017	35.011684
645.876099	53.459999	53.107075	-39.442066
646.293396	-11.040870	40.708496	5.241426
646.710693	-13.523120	40.708496	49.891148
647.127991	-43.317894	3.496945	15.166507
647.545166	-23.453032	72.939613	57.329487
647.962341	-48.285095	60.545017	-24.543703
648.379333	-18.487799	95.243271	-9.649258
648.796448	-23.453032	40.708496	42.451881
649.213379	-28.418549	-11.394178	-24.543703
649.630310	-65.673828	-13.876443	-27.026524
650.047180	3.850164	3.496945	7.722886
650.463989	-95.495102	33.268078	-27.026524
650.880859	-68.158394	5.978478	2.759996
651.297546	3.850164	10.941098	-59.312222
651.714233	-3.594883	-26.289066	17.647551
652.130859	-65.673828	53.107075	121.756683
652.547485	-60.705147	-6.430098	-44.408936
652.963928	75.770912	3.496945	59.808777
653.380432	-3.594883	8.459772	-24.543703
653.796814	-43.317894	-66.027466	2.759996
654.213196	-53.252720	-73.481392	59.808777
654.629578	16.256447	-3.948147	-39.442066
655.045837	-40.834385	-70.996605	0.278327
655.462036	-48.285095	40.708496	22.609192
655.878174	-18.487799	-26.289066	57.329487
656.294312	-48.285095	-23.806414	-19.578514
656.710327	-25.935804	-8.912018	-14.613609
657.126404	-132.793457	-26.289066	-19.578514
657.542358	-102.952950	20.865225	-19.578514
657.958252	-53.252720	-53.606281	-2.203446
658.374084	-30.901531	-90.877663	-17.096010
658.789917	-6.076819	-53.606281	5.241426
659.205688	-13.523120	-11.394178	-76.704247
659.621338	-60.705147	-43.671261	-17.096010
660.037048	-16.005474	15.903437	-41.925381
660.452637	-53.252720	20.865225	7.722886
660.868164	-48.285095	30.787687	-19.578514
661.283691	-30.901531	8.459772	-46.892597
661.699158	-30.901531	-1.466300	10.204242
662.114502	-25.935804	82.853424	-27.026524
662.529846	-23.453032	8.459772	15.166507
662.945129	-60.705147	-33.738064	5.241426
663.360413	-60.705147	-85.906693	-24.543703
663.775635	-13.523120	10.941098	7.722886
664.190674	-23.453032	-48.638626	42.451881
664.605835	-25.935804	1.015307	-9.649258
665.020813	-45.801373	-1.466300	-4.685324
665.435791	-50.768921	33.268078	-54.344082
665.850769	-13.523120	5.978478	-39.442066
666.265625	-20.970362	15.903437	-41.925381
666.680420	-107.925255	-23.806414	12.685359
667.095215	-60.705147	-33.738064	-46.892597
667.509949	-53.252720	30.787687	12.685359
667.924622	-38.350979	-43.671261	-2.203446
668.339233	-45.801373	-6.430098	-19.578514
668.753784	-115.384575	-31.254961	-14.613609
669.168335	-13.523120	5.978478	37.491760
669.582825	33.620987	-28.771961	-51.860104
669.997192	-40.834385	-16.358812	-14.613609
670.411560	-97.980942	-70.996605	35.011684
670.825867	6.331683	-28.771961	-31.992344
671.240173	-28.418549	28.307194	-22.061125
671.654358	-73.127708	-23.806414	-22.061125
672.068481	-110.411629	-48.638626	-7.167171
672.482605	16.256447	-23.806414	7.722886
672.896667	16.256447	-23.806414	-2.203446
673.310669	-55.736755	-21.323730	-27.026524
673.724609	-28.418549	-110.765541	-54.344082
674.138489	-90.523872	-26.289066	-12.131448
674.552307	-55.736755	-8.912018	-4.685324
674.966064	-3.594883	-66.027466	2.759996
675.379822	-6.076819	-66.027466	-17.096010
675.793579	33.620987	-63.542992	-59.312222
676.207153	-73.127708	75.418251	0.278327
676.620789	-48.285095	-3.948147	-17.096010
677.034241	-3.594883	-16.358812	-2.203446
677.447754	-63.189365	13.422318	-4.685324
677.861206	-75.612602	72.939613	-17.096010
678.274597	3.850164	-6.430098	15.166507
678.687866	-6.076819	-78.451164	99.462715
679.101135	-16.005474	-61.058620	39.971874
679.514404	-16.005474	38.228416	-4.685324
679.927551	-73.127708	3.496945	7.722886
680.340698	-80.582550	-51.122467	-36.958721
680.753723	-88.038345	8.459772	-22.061125
681.166748	-38.350979	-16.358812	-14.613609
681.579712	-107.925255	-16.358812	2.759996
681.992615	-43.317894	-56.090332	-12.131448
682.405457	-65.673828	-13.876443	-66.765289
682.818298	-95.495102	8.459772	2.759996
683.231018	-105.438980	8.459772	-12.131448
683.643738	-1.113051	-51.122467	7.722886
684.056335	-35.867680	-26.289066	27.570553
684.468994	1.368541	-23.806414	-49.376228
684.881531	-83.067757	-13.876443	0.278327
685.293945	-63.189365	67.982033	7.722886
685.706482	-3.594883	5.978478	-54.344082
686.118774	-75.612602	-36.221138	-109.017509
686.531128	-35.867680	1.015307	-76.704247
686.943481	-38.350979	-38.704453	-54.344082
687.355713	-50.768921	-3.948147	104.417709
687.767883	-85.553062	-36.221138	5.241426
688.179932	-25.935804	-66.027466	-17.096010
688.592041	-35.867680	-115.738510	-19.578514
689.004089	-93.009499	-6.430098	-4.685324
689.416016	-25.935804	-28.771961	-74.219315
689.827881	-85.553062	30.787687	15.166507
690.239868	-28.418549	28.307194	-12.131448
690.651611	-53.252720	-3.948147	-19.578514
691.063354	31.140745	20.865225	-12.131448
691.475098	11.294272	-98.334778	-74.219315
691.886719	-18.487799	38.228416	17.647551
692.298340	-6.076819	20.865225	20.128357
692.709900	-83.067757	18.384315	12.685359
693.121460	-55.736755	3.496945	-4.685324
693.532837	-100.466896	-46.154892	44.931786
693.944214	-16.005474	-88.392120	-4.685324
694.355652	50.980453	-93.363304	-7.167171
694.766846	-55.736755	-61.058620	54.850101
695.178101	18.737444	-6.430098	-19.578514
695.589294	-3.594883	-3.948147	-31.992344
696.000366	-85.553062	-61.058620	-44.408936
696.411438	-16.005474	-13.876443	20.128357
696.822510	-30.901531	-133.147507	-49.376228
697.233459	-65.673828	-48.638626	74.682060
697.644409	-33.384621	-13.876443	20.128357
698.055298	18.737444	8.459772	20.128357
698.466064	6.331683	-70.996605	-86.644897
698.876831	13.775479	67.982033	-41.925381
699.287537	-43.317894	-33.738064	-34.475479
699.698181	-55.736755	-1.466300	-141.348999
700.108826	-28.418549	-1.466300	-14.613609
700.519348	-13.523120	-23.806414	-89.130363
700.929810	26.179684	3.496945	-31.992344
701.340271	-18.487799	-31.254961	-41.925381
701.750732	-18.487799	-53.606281	-54.344082
702.161011	8.812963	-48.638626	-27.026524
702.571350	-20.970362	-6.430098	-24.543703
702.981567	-38.350979	-1.466300	-36.958721
703.391724	-50.768921	-28.771961	-34.475479
703.801880	-28.418549	-16.358812	-14.613609
704.211914	-102.952950	43.188339	-29.509449
704.621948	-85.553062	23.346029	2.759996
705.031921	-16.005474	-80.936279	-39.442066
705.441895	6.331683	-38.704453	22.609192
705.851746	-43.317894	55.586540	-96.587257
706.261536	41.061493	25.826595	-19.578514
706.671265	13.775479	-28.771961	-4.685324
707.081055	3.850164	-85.906693	-61.796516
707.490662	-3.594883	-23.806414	-51.860104
707.900330	41.061493	-21.323730	35.011684
708.309814	-58.220898	40.708496	7.722886
708.719299	-28.418549	-13.876443	-69.249901
709.128784	26.179684	-16.358812	-2.203446
709.538147	-38.350979	38.228416	-4.685324
709.947510	-75.612602	13.422318	-27.026524
710.356750	-75.612602	-31.254961	-31.992344
710.766052	-88.038345	13.422318	-9.649258
711.175171	-110.411629	-58.574493	-7.167171
711.584290	-80.582550	-21.323730	-44.408936
711.993347	-58.220898	-33.738064	-4.685324
712.402405	3.850164	-8.912018	-22.061125
712.811401	13.775479	-8.912018	-49.376228
713.220276	28.660265	-46.154892	-51.860104
713.629150	-43.317894	-68.512047	-41.925381
714.037964	-53.252720	18.384315	-84.159546
714.446777	1.368541	-21.323730	12.685359
714.855408	-25.935804	-43.671261	32.531364
715.264099	-25.935804	77.896660	-24.543703
715.672668	-68.158394	-11.394178	-84.159546
716.081177	-33.384621	-53.606281	-31.992344
716.489746	-50.768921	-41.187870	-22.061125
716.898132	8.812963	-56.090332	-44.408936
717.306519	-6.076819	-43.671261	-61.796516
717.714844	13.775479	-41.187870	-17.096010
718.123108	8.812963	-70.996605	-2.203446
718.531372	-63.189365	-46.154892	-12.131448
718.939514	-55.736755	-11.394178	17.647551
719.347595	43.541321	3.496945	-56.828167
719.755676	-45.801373	-31.254961	-81.674423
720.163696	11.294272	-78.451164	2.759996
720.571716	-97.980942	-31.254961	-29.509449
720.979614	65.856071	-23.806414	-64.280922
721.387451	-85.553062	-3.948147	-56.828167
721.795227	-1.113051	-26.289066	-36.958721
722.202942	53.459999	28.307194	42.451881
722.610718	43.541321	95.243271	15.166507
723.018311	-33.384621	53.107075	-31.992344
723.425903	-16.005474	-31.254961	-79.189285
723.833374	-63.189365	-23.806414	-96.587257
724.240906	-20.970362	-58.574493	0.278327
724.648376	-40.834385	-1.466300	-51.860104
725.055725	-85.553062	15.903437	35.011684
725.463013	-25.935804	-46.154892	-49.376228
725.870300	-11.040870	-41.187870	-24.543703
726.277466	-1.113051	-23.806414	-69.249901
726.684631	-20.970362	5.978478	-14.613609
727.091797	1.368541	1.015307	20.128357
727.498779	-70.642929	-23.806414	-76.704247
727.905823	-30.901531	15.903437	2.759996
728.312805	-55.736755	-61.058620	59.808777
728.719666	-45.801373	-18.841150	-59.312222
729.126526	-85.553062	-63.542992	20.128357
729.533264	-33.384621	-56.090332	-41.925381
729.940063	-48.285095	-61.058620	-84.159546
730.346680	-3.594883	-26.289066	-29.509449
730.753357	-35.867680	-43.671261	-51.860104
731.159851	-40.834385	-80.936279	89.551659
731.566406	-75.612602	-16.358812	-71.734627
731.972900	-102.952950	-21.323730	-138.861282
732.379272	-20.970362	15.903437	-34.475479
732.785645	-73.127708	-16.358812	-99.073143
733.191895	-85.553062	20.865225	-44.408936
733.598206	-43.317894	-48.638626	0.278327
734.004333	-65.673828	-95.848923	22.609192
734.410522	-43.317894	-18.841150	-29.509449
734.816528	-45.801373	-1.466300	-22.061125
735.222656	-38.350979	-6.430098	-12.131448
735.628662	-40.834385	50.627647	-46.892597
736.034546	-63.189365	-78.451164	-19.578514
736.440430	-73.127708	5.978478	-2.203446
736.846252	-23.453032	-13.876443	0.278327
737.252014	-107.925255	-31.254961	-71.734627
737.657715	-23.453032	-33.738064	32.531364
738.063354	18.737444	15.903437	-31.992344
738.468933	-38.350979	-56.090332	-71.734627
738.874512	-33.384621	-53.606281	-19.578514
739.280029	-13.523120	70.460876	-4.685324
739.685486	-40.834385	-56.090332	0.278327
740.090881	-48.285095	-23.806414	-46.892597
740.496216	-33.384621	-53.606281	7.722886
740.901550	-23.453032	-33.738064	-17.096010
741.306702	-16.005474	5.978478	-66.765289
741.711914	-105.438980	-85.906693	-4.685324
742.117004	-45.801373	-23.806414	-41.925381
742.522095	-63.189365	-23.806414	87.073738
742.927124	-20.970362	-11.394178	-64.280922
743.332031	-80.582550	3.496945	-41.925381
743.737000	-1.113051	-28.771961	-9.649258
744.141785	-157.672424	-26.289066	10.204242
744.546631	-73.127708	-78.451164	-31.992344
744.951355	-6.076819	-8.912018	-44.408936
745.356079	-8.558860	-46.154892	0.278327
745.760620	-20.970362	-110.765541	32.531364
746.165283	-55.736755	-1.466300	12.685359
746.569824	-80.582550	-28.771961	-17.096010
746.974243	-63.189365	-38.704453	-49.376228
747.378723	-48.285095	-88.392120	-74.219315
747.783020	13.775479	-83.421501	-12.131448
748.187378	-53.252720	-83.421501	-46.892597
748.591614	-70.642929	-31.254961	-109.017509
748.995850	-60.705147	-21.323730	-54.344082
749.399963	-35.867680	-88.392120	12.685359
749.804077	-65.673828	-95.848923	-41.925381
750.208130	-18.487799	13.422318	-54.344082
750.612122	-50.768921	-68.512047	-41.925381
751.016052	-73.127708	-53.606281	22.609192
751.419922	26.179684	53.107075	-61.796516
751.823792	-1.113051	25.826595	-69.249901
752.227478	-130.306107	-8.912018	-17.096010
752.631226	18.737444	-31.254961	5.241426
753.034851	-45.801373	-78.451164	2.759996
753.438477	-18.487799	-33.738064	-7.167171
753.842102	-65.673828	38.228416	-99.073143
754.245544	-33.384621	-61.058620	-49.376228
754.648987	6.331683	-88.392120	-19.578514
755.052368	16.256447	-68.512047	5.241426
755.455750	-80.582550	-36.221138	-36.958721
755.859009	-35.867680	-36.221138	-64.280922
756.262268	36.101257	20.865225	-14.613609
756.665405	-78.097450	-48.638626	-56.828167
757.068542	-48.285095	18.384315	22.609192
757.471680	-63.189365	30.787687	-17.096010
757.874634	6.331683	-83.421501	-51.860104
758.277588	11.294272	-13.876443	2.759996
758.680420	11.294272	23.346029	20.128357
759.083374	-73.127708	-26.289066	-36.958721
759.486084	-35.867680	-33.738064	-49.376228
759.888916	-45.801373	-8.912018	32.531364
760.291504	-33.384621	-46.154892	10.204242
760.694214	-1.113051	-68.512047	-86.644897
761.096802	-25.935804	-16.358812	-29.509449
761.499268	-23.453032	-11.394178	22.609192
761.901733	-48.285095	-61.058620	2.759996
762.304199	-43.317894	63.024170	20.128357
762.706543	-55.736755	-31.254961	-17.096010
763.108826	-75.612602	-66.027466	-31.992344
763.511108	-40.834385	-48.638626	-71.734627
763.913208	-117.871269	-88.392120	-36.958721
764.315369	-75.612602	-16.358812	27.570553
764.717529	23.699129	-46.154892	25.089924
765.119568	-8.558860	-23.806414	27.570553
765.521545	-11.040870	-28.771961	-14.613609
765.923462	-25.935804	-13.876443	-24.543703
766.325317	41.061493	-85.906693	-24.543703
766.727112	-35.867680	-6.430098	-2.203446
767.128845	-50.768921	-75.966293	10.204242
767.530518	13.775479	-16.358812	17.647551
767.932251	3.850164	-28.771961	10.204242
768.333862	-127.819008	23.346029	-49.376228
768.735413	-43.317894	-33.738064	32.531364
769.136841	-68.158394	25.826595	-27.026524
769.538269	-8.558860	8.459772	-2.203446
769.939636	-48.285095	-48.638626	-36.958721
770.341003	-50.768921	-73.481392	-66.765289
770.742249	-60.705147	-21.323730	-31.992344
771.143433	-43.317894	-53.606281	-12.131448
771.544617	38.581429	-3.948147	27.570553
771.945740	-78.097450	-18.841150	-31.992344
772.346802	-53.252720	30.787687	-54.344082
772.747803	-1.113051	-53.606281	-111.503937
773.148682	-65.673828	13.422318	-31.992344
773.549622	-68.158394	-108.279152	2.759996
773.950439	-63.189365	-75.966293	0.278327
774.351196	-75.612602	20.865225	-36.958721
774.751892	-11.040870	18.384315	-41.925381
775.152588	-11.040870	-90.877663	-69.249901
775.553162	-105.438980	18.384315	-64.280922
775.953735	-53.252720	-3.948147	25.089924
776.354309	-97.980942	-78.451164	-4.685324
776.754639	-1.113051	-123.198845	-2.203446
777.155090	8.812963	-43.671261	-7.167171
777.555420	-25.935804	5.978478	-2.203446
777.955750	-28.418549	-26.289066	-4.685324
778.355896	23.699129	23.346029	-2.203446
778.756104	-16.005474	-56.090332	-31.992344
779.156189	-48.285095	-41.187870	-51.860104
779.556274	-38.350979	-68.512047	25.089924
779.956299	-58.220898	-13.876443	-54.344082
780.356201	-16.005474	-118.225227	-74.219315
780.756165	8.812963	-68.512047	-76.704247
781.156006	36.101257	5.978478	-54.344082
781.555786	16.256447	30.787687	-109.017509
781.955505	-33.384621	18.384315	-64.280922
782.355225	11.294272	-33.738064	-17.096010
782.754761	-65.673828	-95.848923	0.278327
783.154358	-1.113051	1.015307	22.609192
783.553894	-53.252720	-11.394178	57.329487
783.953369	-75.612602	8.459772	27.570553
784.352783	-6.076819	-18.841150	-27.026524
784.752075	16.256447	-21.323730	-24.543703
785.151367	21.218338	28.307194	-56.828167
785.550598	-55.736755	-21.323730	-36.958721
785.949768	-35.867680	-18.841150	5.241426
786.348877	-70.642929	-58.574493	37.491760
786.747986	-33.384621	-43.671261	-89.130363
787.147034	-11.040870	-23.806414	7.722886
787.545959	-1.113051	-93.363304	-46.892597
787.944885	-20.970362	-21.323730	-34.475479
788.343750	-33.384621	-63.542992	22.609192
788.742493	-11.040870	8.459772	30.050945
789.141235	-73.127708	-48.638626	-36.958721
789.539917	11.294272	-78.451164	-44.408936
789.938538	-18.487799	-38.704453	-41.925381
790.337158	-20.970362	-51.122467	-39.442066
790.735718	-28.418549	-23.806414	-19.578514
791.134094	-63.189365	-36.221138	-49.376228
791.532532	-11.040870	-120.711906	-89.130363
791.930847	-35.867680	5.978478	17.647551
792.329224	-58.220898	-38.704453	-14.613609
792.727417	85.684250	-28.771961	-46.892597
793.125610	-48.285095	1.015307	-89.130363
793.523682	-130.306107	28.307194	-17.096010
793.921753	-48.285095	1.015307	-49.376228
794.319824	-11.040870	23.346029	-56.828167
794.717773	-23.453032	23.346029	-66.765289
795.115723	8.812963	28.307194	-91.615799
795.513550	-38.350979	3.496945	32.531364
795.911377	-93.009499	28.307194	-49.376228
796.309082	-90.523872	-13.876443	-4.685324
796.706787	48.500935	1.015307	-12.131448
797.104370	6.331683	-61.058620	-4.685324
797.501953	28.660265	-3.948147	-27.026524
797.899536	13.775479	-3.948147	-59.312222
798.296936	-78.097450	-66.027466	-19.578514
798.694397	-3.594883	-16.358812	-19.578514
799.091736	-11.040870	20.865225	-54.344082
799.489014	-40.834385	-28.771961	-56.828167
799.886230	21.218338	-41.187870	-51.860104
800.283447	-16.005474	-83.421501	-61.796516
800.680542	-88.038345	-46.154892	10.204242
801.077637	-23.453032	-58.574493	20.128357
801.474670	-33.384621	10.941098	-91.615799
801.871643	-75.612602	20.865225	-81.674423
802.268555	-11.040870	-38.704453	-12.131448
802.665405	-65.673828	5.978478	-19.578514
803.062256	-38.350979	-36.221138	-44.408936
803.458923	-23.453032	-53.606281	-31.992344
803.855652	-117.871269	-26.289066	-36.958721
804.252258	-25.935804	3.496945	-49.376228
804.648804	-35.867680	-125.685875	7.722886
805.045410	-23.453032	-43.671261	-64.280922
805.441833	41.061493	23.346029	-104.045113
805.838257	-68.158394	-23.806414	-64.280922
806.234619	-23.453032	-58.574493	-84.159546
806.630859	-38.350979	-11.394178	-123.937531
807.027100	-33.384621	-43.671261	-44.408936
807.423279	21.218338	-36.221138	-64.280922
807.819458	-38.350979	-75.966293	-54.344082
808.215515	-75.612602	-8.912018	57.329487
808.611572	-50.768921	-26.289066	-46.892597
809.007507	-20.970362	-53.606281	-24.543703
809.403381	28.660265	-11.394178	54.850101
809.799194	-25.935804	-48.638626	-44.408936
810.195068	36.101257	45.668213	59.808777
810.590759	-63.189365	53.107075	-4.685324
810.986450	-80.582550	-58.574493	-39.442066
811.382080	-53.252720	-16.358812	-14.613609
811.777649	-23.453032	-26.289066	47.411453
812.173157	-33.384621	5.978478	32.531364
812.568665	-45.801373	-11.394178	-81.674423
812.964050	-11.040870	-13.876443	25.089924
813.359375	-35.867680	-63.542992	20.128357
813.754639	-16.005474	10.941098	-31.992344
814.149841	-35.867680	-75.966293	20.128357
814.545105	-75.612602	-28.771961	5.241426
814.940186	-33.384621	-8.912018	-4.685324
815.335266	-45.801373	-90.877663	17.647551
815.730347	-145.231659	40.708496	-17.096010
816.125244	-30.901531	-38.704453	-101.559013
816.520203	-55.736755	-13.876443	-19.578514
816.914978	-88.038345	1.015307	10.204242
817.309753	-13.523120	-80.936279	-19.578514
817.704468	-60.705147	-33.738064	-56.828167
818.099182	-102.952950	8.459772	-64.280922
818.493774	-43.317894	-21.323730	12.685359
818.888367	-68.158394	-38.704453	17.647551
819.282898	-78.097450	-8.912018	-99.073143
819.677307	-35.867680	-66.027466	27.570553
820.071716	18.737444	-66.027466	-56.828167
820.466003	-65.673828	-43.671261	-64.280922
820.860291	-53.252720	-8.912018	-104.045113
821.254517	-63.189365	-115.738510	-9.649258
821.648743	-38.350979	-56.090332	2.759996
822.042786	-8.558860	-46.154892	-51.860104
822.436890	-117.871269	-93.363304	2.759996
822.830872	-95.495102	-13.876443	-46.892597
823.224792	6.331683	-6.430098	-19.578514
823.618774	13.775479	-18.841150	-111.503937
824.012512	-23.453032	-8.912018	-7.167171
824.406311	-6.076819	-48.638626	-56.828167
824.799988	-43.317894	-13.876443	52.370743
825.193665	-30.901531	-11.394178	-94.101479
825.587280	18.737444	-31.254961	-17.096010
825.980835	-53.252720	-48.638626	-44.408936
826.374329	-75.612602	25.826595	10.204242
826.767761	-13.523120	-38.704453	5.241426
827.161194	-8.558860	-16.358812	15.166507
827.554443	-65.673828	-51.122467	-17.096010
827.947754	23.699129	33.268078	0.278327
828.340942	-75.612602	3.496945	-22.061125
828.734131	13.775479	-3.948147	-12.131448
829.127136	-35.867680	-123.198845	-51.860104
829.520264	-78.097450	-21.323730	-12.131448
829.913208	-16.005474	-66.027466	5.241426
830.306152	28.660265	-90.877663	-36.958721
830.699097	-58.220898	-51.122467	-44.408936
831.091797	-13.523120	-28.771961	-59.312222
831.484619	-58.220898	-46.154892	-24.543703
831.877319	-6.076819	-1.466300	-36.958721
832.270020	-16.005474	-66.027466	-36.958721
832.662537	-1.113051	-56.090332	-19.578514
833.055054	-63.189365	-61.058620	-29.509449
833.447510	-55.736755	-53.606281	2.759996
833.839966	-80.582550	8.459772	7.722886
834.232361	-70.642929	-58.574493	-64.280922
834.624634	16.256447	-133.147507	22.609192
835.016907	-20.970362	-63.542992	-7.167171
835.409058	21.218338	-83.421501	-109.017509
835.801208	-78.097450	-18.841150	-76.704247
836.193298	-55.736755	-53.606281	42.451881
836.585327	-13.523120	-21.323730	-49.376228
836.977295	-6.076819	-21.323730	-61.796516
837.369202	-30.901531	23.346029	-61.796516
837.761047	-63.189365	-100.820747	15.166507
838.152832	-28.418549	25.826595	2.759996
838.544617	21.218338	-61.058620	-79.189285
838.936218	-48.285095	-23.806414	0.278327
839.327942	18.737444	-41.187870	-39.442066
839.719421	-45.801373	60.545017	-19.578514
840.111023	-60.705147	-68.512047	39.971874
840.502380	-23.453032	-38.704453	-2.203446
840.893860	-13.523120	1.015307	-51.860104
841.285217	-8.558860	40.708496	-51.860104
841.676453	-1.113051	1.015307	32.531364
842.067749	-11.040870	-18.841150	-14.613609
842.458862	-20.970362	-36.221138	82.117317
842.849976	-38.350979	20.865225	37.491760
843.241028	-43.317894	-23.806414	-36.958721
843.632019	-55.736755	-13.876443	-12.131448
844.022949	-68.158394	-13.876443	10.204242
844.413879	-97.980942	-21.323730	-31.992344
844.804749	-65.673828	-26.289066	-34.475479
845.195496	-78.097450	-61.058620	-86.644897
845.586182	-50.768921	-70.996605	-22.061125
845.976807	-55.736755	-83.421501	-56.828167
846.367432	-100.466896	-26.289066	-22.061125
846.757996	-6.076819	-41.187870	30.050945
847.148499	-23.453032	-90.877663	30.050945
847.538879	-93.009499	-23.806414	-44.408936
847.929260	-11.040870	-18.841150	-74.219315
848.319641	-48.285095	-56.090332	-12.131448
848.709839	-45.801373	-53.606281	-31.992344
849.100098	-28.418549	-51.122467	-44.408936
849.490234	-35.867680	23.346029	-36.958721
849.880310	-1.113051	-48.638626	-56.828167
850.270325	41.061493	-1.466300	-106.531326
850.660339	-48.285095	-23.806414	-34.475479
851.050171	-45.801373	-66.027466	2.759996
851.440125	1.368541	-21.323730	-69.249901
851.829895	-53.252720	-53.606281	-9.649258
852.219604	23.699129	-33.738064	-34.475479
852.609314	3.850164	80.375092	-71.734627
852.998901	-28.418549	-28.771961	-34.475479
853.388550	13.775479	-51.122467	-41.925381
853.778015	41.061493	23.346029	-74.219315
854.167480	-33.384621	-33.738064	-27.026524
854.556885	-45.801373	-73.481392	-12.131448
854.946228	-33.384621	-28.771961	-49.376228
855.335571	-6.076819	-46.154892	-24.543703
855.724731	18.737444	15.903437	17.647551
856.113953	31.140745	33.268078	-64.280922
856.503052	-18.487799	18.384315	17.647551
856.892151	-23.453032	-31.254961	-69.249901
857.281067	-70.642929	-3.948147	-64.280922
857.670105	-93.009499	-43.671261	47.411453
858.058960	-55.736755	-90.877663	-71.734627
858.447754	-33.384621	-38.704453	-44.408936
858.836609	-102.952950	-11.394178	-29.509449
859.225281	-53.252720	-105.792862	27.570553
859.613892	-97.980942	-51.122467	-9.649258
860.002502	-88.038345	-11.394178	-9.649258
860.391052	3.850164	-48.638626	15.166507
860.779541	-43.317894	-21.323730	-64.280922
861.167969	-33.384621	-61.058620	-81.674423
861.556335	-70.642929	23.346029	-9.649258
861.944702	-60.705147	-18.841150	37.491760
862.332947	-18.487799	-43.671261	-34.475479
862.721069	-107.925255	-70.996605	0.278327
863.109253	-68.158394	-28.771961	-64.280922
863.497314	-11.040870	-43.671261	-148.812653
863.885376	16.256447	-80.936279	-69.249901
864.273315	-6.076819	-28.771961	-59.312222
864.661255	-43.317894	-43.671261	-51.860104
865.049072	-95.495102	-23.806414	-14.613609
865.436890	-45.801373	-51.122467	-96.587257
865.824707	-83.067757	-23.806414	-51.860104
866.212280	-60.705147	48.147984	-24.543703
866.599915	-6.076819	-33.738064	-17.096010
866.987488	-78.097450	-95.848923	27.570553
867.375061	-16.005474	-26.289066	-39.442066
867.762451	-33.384621	-26.289066	22.609192
868.149841	-28.418549	18.384315	-29.509449
868.537170	-65.673828	-6.430098	-12.131448
868.924438	68.334869	1.015307	-9.649258
869.311707	-11.040870	-28.771961	-4.685324
869.698853	-43.317894	-33.738064	-31.992344
870.085938	-65.673828	-41.187870	-31.992344
870.472961	-8.558860	-93.363304	5.241426
870.859985	-1.113051	38.228416	2.759996
871.246887	-60.705147	-46.154892	-99.073143
871.633789	26.179684	-46.154892	-24.543703
872.020569	-70.642929	-88.392120	-41.925381
872.407349	-70.642929	-11.394178	52.370743
872.794067	-80.582550	-58.574493	-44.408936
873.180725	18.737444	-70.996605	-14.613609
873.567322	-35.867680	-31.254961	-89.130363
873.953796	-65.673828	-66.027466	-46.892597
874.340332	-48.285095	-6.430098	5.241426
874.726624	11.294272	10.941098	54.850101
875.113037	33.620987	-38.704453	-14.613609
875.499329	-33.384621	-31.254961	2.759996
875.885559	8.812963	-13.876443	37.491760
876.271729	-60.705147	-98.334778	-86.644897
876.657898	-75.612602	10.941098	-59.312222
877.044006	1.368541	23.346029	17.647551
877.429932	-28.418549	-100.820747	-51.860104
877.815918	-70.642929	-125.685875	-74.219315
878.201782	-18.487799	-26.289066	-17.096010
878.587585	-63.189365	3.496945	-56.828167
878.973389	-43.317894	1.015307	-91.615799
879.359070	-70.642929	-38.704453	-36.958721
879.744751	-30.901531	-23.806414	-19.578514
880.130310	-65.673828	-63.542992	-19.578514
880.515930	36.101257	-21.323730	-76.704247
880.901367	-35.867680	-23.806414	-19.578514
881.286804	-93.009499	-33.738064	2.759996
881.672180	-38.350979	-73.481392	-66.765289
882.057434	-58.220898	-66.027466	-7.167171
882.442749	-95.495102	-8.912018	-4.685324
882.827942	-73.127708	-6.430098	-4.685324
883.213013	-95.495102	-70.996605	22.609192
883.598145	-13.523120	1.015307	-14.613609
883.983154	-58.220898	1.015307	15.166507
884.368042	-70.642929	-58.574493	-76.704247
884.753052	-35.867680	-11.394178	-31.992344
885.137817	-6.076819	-66.027466	-27.026524
885.522644	-65.673828	67.982033	12.685359
885.907349	-11.040870	-80.936279	17.647551
886.292053	-75.612602	-8.912018	79.638962
886.676636	-50.768921	-93.363304	15.166507
887.061157	-3.594883	-43.671261	-14.613609
887.445740	-25.935804	20.865225	-79.189285
887.830078	-58.220898	-46.154892	10.204242
888.214539	1.368541	-113.251907	-111.503937
888.598816	-88.038345	-53.606281	-4.685324
888.983093	-60.705147	-98.334778	22.609192
889.367249	-90.523872	-26.289066	-14.613609
889.751465	-48.285095	-83.421501	-133.886169
890.135498	33.620987	-1.466300	-49.376228
890.519531	-8.558860	-21.323730	42.451881
890.903503	18.737444	-85.906693	-79.189285
891.287415	-33.384621	-38.704453	-74.219315
891.671326	-85.553062	-38.704453	-2.203446
892.055054	38.581429	-78.451164	2.759996
892.438843	31.140745	-56.090332	-106.531326
892.822510	-1.113051	-43.671261	2.759996
893.206116	-11.040870	-21.323730	-46.892597
893.589661	8.812963	10.941098	-79.189285
893.973206	3.850164	25.826595	-17.096010
894.356628	-23.453032	-3.948147	-126.424461
894.739990	11.294272	-33.738064	-14.613609
895.123352	-25.935804	28.307194	-24.543703
895.506592	-23.453032	-8.912018	12.685359
895.889832	13.775479	-13.876443	-69.249901
896.272949	-3.594883	-48.638626	25.089924
896.656067	-70.642929	45.668213	-81.674423
897.039063	-38.350979	-26.289066	-27.026524
897.422058	-13.523120	50.627647	0.278327
897.804993	-48.285095	-46.154892	-2.203446
898.187866	-48.285095	-3.948147	-39.442066
898.570618	-33.384621	-41.187870	-54.344082
898.953369	-45.801373	-123.198845	-86.644897
899.336121	-35.867680	-28.771961	-74.219315
899.718689	-97.980942	-31.254961	-39.442066
900.101257	-45.801373	-46.154892	-51.860104
900.483704	-25.935804	-8.912018	-31.992344
900.866211	-33.384621	-31.254961	-56.828167
901.248596	-78.097450	-36.221138	-46.892597
901.630920	-35.867680	-78.451164	-111.503937
902.013184	-33.384621	18.384315	-56.828167
902.395386	-55.736755	-110.765541	-86.644897
902.777588	-63.189365	-103.306679	-54.344082
903.159668	-45.801373	-110.765541	-36.958721
903.541687	-11.040870	-80.936279	39.971874
903.923645	28.660265	-85.906693	-2.203446
904.305603	-90.523872	-16.358812	10.204242
904.687500	11.294272	-23.806414	-148.812653
905.069275	-35.867680	-18.841150	-44.408936
905.451050	-127.819008	-36.221138	22.609192
905.832642	18.737444	-83.421501	-7.167171
906.214294	-11.040870	-46.154892	-24.543703
906.595825	18.737444	-48.638626	2.759996
906.977417	43.541321	-61.058620	-44.408936
907.358826	-70.642929	-80.936279	-29.509449
907.740234	-45.801373	-43.671261	-27.026524
908.121582	-112.897980	-33.738064	-17.096010
908.502869	8.812963	-13.876443	-41.925381
908.884033	16.256447	13.422318	25.089924
909.265198	-28.418549	-11.394178	-9.649258
909.646301	41.061493	-98.334778	17.647551
910.027344	-1.113051	-3.948147	-39.442066
910.408325	18.737444	-36.221138	49.891148
910.789246	-8.558860	23.346029	-99.073143
911.170105	-40.834385	-61.058620	-14.613609
911.550903	13.775479	-11.394178	-49.376228
911.931641	1.368541	-23.806414	0.278327
912.312317	-6.076819	5.978478	-76.704247
912.692932	-75.612602	20.865225	-9.649258
913.073547	-48.285095	-13.876443	-44.408936
913.453979	6.331683	-31.254961	-101.559013
913.834473	-45.801373	-31.254961	-71.734627
914.214783	-95.495102	-43.671261	-69.249901
914.595154	-53.252720	40.708496	-121.450569
914.975464	-70.642929	60.545017	0.278327
915.355652	-35.867680	-33.738064	30.050945
915.735840	-70.642929	-133.147507	-64.280922
916.115845	-63.189365	-28.771961	47.411453
916.495972	-65.673828	-36.221138	-14.613609
916.875854	-23.453032	-63.542992	39.971874
917.255859	21.218338	3.496945	-46.892597
917.635620	-30.901531	-23.806414	-46.892597
918.015503	-50.768921	-13.876443	-34.475479
918.395203	-68.158394	-21.323730	-7.167171
918.774902	-38.350979	-56.090332	-69.249901
919.154480	8.812963	-36.221138	-99.073143
919.534058	-25.935804	-61.058620	-41.925381
919.913574	-30.901531	-43.671261	7.722886
920.292969	-11.040870	-21.323730	-14.613609
920.672363	-73.127708	-11.394178	-24.543703
921.051636	-50.768921	-48.638626	-49.376228
921.430969	-1.113051	-18.841150	22.609192
921.810181	-23.453032	-18.841150	-24.543703
922.189331	3.850164	-70.996605	10.204242
922.568420	-23.453032	-33.738064	-7.167171
922.947388	-33.384621	35.748230	-36.958721
923.326416	-50.768921	-48.638626	17.647551
923.705261	-65.673828	-43.671261	-44.408936
924.084106	23.699129	-13.876443	20.128357
924.462891	-28.418549	-18.841150	-71.734627
924.841675	-43.317894	-73.481392	-17.096010
925.220337	-90.523872	-33.738064	-54.344082
925.598938	36.101257	77.896660	54.850101
925.977478	-40.834385	-41.187870	-24.543703
926.355957	-43.317894	-58.574493	-46.892597
926.734436	-83.067757	-41.187870	-24.543703
927.112732	-70.642929	8.459772	-29.509449
927.491089	-90.523872	-128.173019	35.011684
927.869324	-8.558860	63.024170	54.850101
928.247559	-38.350979	-53.606281	-54.344082
928.625671	-95.495102	-58.574493	-46.892597
929.003723	-83.067757	15.903437	42.451881
929.381775	-50.768921	28.307194	-39.442066
929.759705	16.256447	18.384315	57.329487
930.137634	6.331683	-43.671261	-9.649258
930.515381	-40.834385	-36.221138	-54.344082
930.893250	-33.384621	-46.154892	-51.860104
931.270935	16.256447	-16.358812	-29.509449
931.648560	-25.935804	-61.058620	2.759996
932.026123	-50.768921	-73.481392	-14.613609
932.403687	-43.317894	-61.058620	-2.203446
932.781250	-25.935804	10.941098	-64.280922
933.158630	-50.768921	23.346029	7.722886
933.536011	-53.252720	-46.154892	-46.892597
933.913208	-33.384621	1.015307	-14.613609
934.290527	-63.189365	-41.187870	17.647551
934.667664	13.775479	-11.394178	-31.992344
935.044800	1.368541	-41.187870	-2.203446
935.421814	-11.040870	-75.966293	-74.219315
935.798889	-58.220898	-18.841150	-64.280922
936.175842	-38.350979	-11.394178	-4.685324
936.552673	-50.768921	-43.671261	-27.026524
936.929504	-33.384621	-90.877663	10.204242
937.306274	1.368541	-70.996605	-22.061125
937.683044	-58.220898	8.459772	-39.442066
938.059570	6.331683	20.865225	5.241426
938.436218	-78.097450	-48.638626	-76.704247
938.812744	-73.127708	-63.542992	-2.203446
939.189148	-16.005474	-13.876443	30.050945
939.565613	-8.558860	18.384315	64.766899
939.941956	3.850164	-23.806414	-19.578514
940.318237	-58.220898	-95.848923	-61.796516
940.694458	-125.331871	-36.221138	-66.765289
941.070557	-1.113051	18.384315	-64.280922
941.446655	-100.466896	-8.912018	7.722886
941.822693	-33.384621	-95.848923	-59.312222
942.198669	-18.487799	-46.154892	-22.061125
942.574646	38.581429	20.865225	20.128357
942.950562	-63.189365	-98.334778	44.931786
943.326294	-11.040870	-110.765541	-71.734627
943.702026	8.812963	3.496945	-113.990463
944.077698	28.660265	-36.221138	-29.509449
944.453369	-20.970362	33.268078	-59.312222
944.828918	-3.594883	-38.704453	-69.249901
945.204468	33.620987	-68.512047	37.491760
945.579834	-70.642929	-108.279152	-79.189285
945.955261	-100.466896	-80.936279	-113.990463
946.330627	-68.158394	-105.792862	49.891148
946.705811	-20.970362	-93.363304	17.647551
947.081055	-83.067757	-46.154892	-59.312222
947.456177	-83.067757	-90.877663	-39.442066
947.831238	-11.040870	-13.876443	-111.503937
948.206238	-43.317894	-88.392120	-74.219315
948.581238	-70.642929	15.903437	-113.990463
948.956116	-30.901531	-63.542992	-9.649258
949.330933	-6.076819	-46.154892	10.204242
949.705811	-90.523872	-8.912018	-12.131448
950.080505	-13.523120	-28.771961	-2.203446
950.455139	-78.097450	-13.876443	-66.765289
950.829773	-25.935804	30.787687	-36.958721
951.204346	73.292419	3.496945	2.759996
951.578735	1.368541	-28.771961	-71.734627
951.953186	-8.558860	-26.289066	52.370743
952.327515	-8.558860	-6.430098	-4.685324
952.701843	-8.558860	33.268078	-66.765289
953.076172	-45.801373	15.903437	-96.587257
953.450195	-53.252720	-41.187870	-66.765289
953.824341	-23.453032	-83.421501	12.685359
954.198486	33.620987	-1.466300	-46.892597
954.572449	18.737444	1.015307	-99.073143
954.946350	-100.466896	-38.704453	-27.026524
955.320251	31.140745	25.826595	-91.615799
955.694092	-53.252720	-51.122467	-86.644897
956.067871	-102.952950	-53.606281	-22.061125
956.441589	-70.642929	-11.394178	-56.828167
956.815125	-28.418549	-63.542992	-14.613609
957.188721	-85.553062	-56.090332	-69.249901
957.562256	-88.038345	-61.058620	-22.061125
957.935730	-45.801373	-93.363304	-9.649258
958.309021	-8.558860	-75.966293	-79.189285
958.682373	-73.127708	-83.421501	-9.649258
959.055664	-8.558860	-33.738064	-99.073143
959.428955	3.850164	-36.221138	37.491760
959.802063	-40.834385	-85.906693	-81.674423
960.175110	-40.834385	1.015307	-44.408936
960.548157	6.331683	-73.481392	0.278327
960.921143	-78.097450	-115.738510	-46.892597
961.294128	-43.317894	-105.792862	-106.531326
961.666809	-43.317894	-21.323730	-66.765289
962.039612	-50.768921	3.496945	-51.860104
962.412415	-100.466896	-21.323730	-39.442066
962.785095	3.850164	-53.606281	-7.167171
963.157715	-60.705147	-8.912018	-56.828167
963.530151	-55.736755	-48.638626	25.089924
963.902649	-65.673828	-11.394178	62.287960
964.275146	38.581429	40.708496	2.759996
964.647522	31.140745	-63.542992	-22.061125
965.019714	-3.594883	-95.848923	-19.578514
965.392029	-28.418549	-43.671261	-4.685324
965.764160	53.459999	1.015307	-29.509449
966.136292	-6.076819	1.015307	10.204242
966.508423	-20.970362	87.809639	-24.543703
966.880371	-28.418549	-38.704453	-27.026524
967.252319	-60.705147	-18.841150	-46.892597
967.624207	-147.719498	20.865225	2.759996
967.996094	-25.935804	-26.289066	-74.219315
968.367737	-18.487799	-100.820747	-24.543703
968.739441	-11.040870	-61.058620	-36.958721
969.111084	33.620987	-33.738064	-64.280922
969.482666	-63.189365	-66.027466	7.722886
969.854248	-8.558860	-23.806414	-27.026524
970.225586	-70.642929	-31.254961	-31.992344
970.596985	-58.220898	-16.358812	-79.189285
970.968323	-40.834385	1.015307	39.971874
971.339661	-85.553062	23.346029	-34.475479
971.710754	-75.612602	-61.058620	-74.219315
972.081909	26.179684	-66.027466	-69.249901
972.453064	-38.350979	-105.792862	-24.543703
972.824097	-43.317894	-36.221138	-41.925381
973.194946	-43.317894	-115.738510	-44.408936
973.565918	-3.594883	-18.841150	20.128357
973.936768	-53.252720	-8.912018	-19.578514
974.307556	-58.220898	-61.058620	-69.249901
974.678284	-97.980942	8.459772	-22.061125
975.048828	-48.285095	-18.841150	-9.649258
975.419495	-97.980942	-88.392120	-7.167171
975.790039	-58.220898	-1.466300	-41.925381
976.160522	-16.005474	-68.512047	-22.061125
976.530884	-18.487799	-28.771961	5.241426
976.901245	-48.285095	-23.806414	-49.376228
977.271606	-45.801373	-51.122467	-126.424461
977.641846	28.660265	-63.542992	-9.649258
978.012024	11.294272	-23.806414	-49.376228
978.382019	21.218338	-16.358812	-46.892597
978.752136	-50.768921	-16.358812	-7.167171
979.122131	-16.005474	3.496945	-66.765289
979.492065	-93.009499	3.496945	42.451881
979.861877	-58.220898	23.346029	-59.312222
980.231689	-65.673828	-68.512047	-27.026524
980.601440	-75.612602	-63.542992	-27.026524
980.971191	-50.768921	-26.289066	-34.475479
981.340820	-53.252720	-3.948147	-14.613609
981.710266	-1.113051	-78.451164	-61.796516
982.079773	-8.558860	-1.466300	-12.131448
982.449280	18.737444	30.787687	-59.312222
982.818604	-53.252720	25.826595	-31.992344
983.187866	-45.801373	-36.221138	-99.073143
983.557129	-88.038345	-108.279152	-44.408936
983.926331	3.850164	-8.912018	-7.167171
984.295471	-8.558860	-83.421501	-71.734627
984.664612	-43.317894	-63.542992	-31.992344
985.033569	26.179684	-41.187870	-123.937531
985.402527	-11.040870	-85.906693	-64.280922
985.771362	-18.487799	-1.466300	17.647551
986.140259	-50.768921	-41.187870	-99.073143
986.508911	-28.418549	-38.704453	-27.026524
986.877625	-120.358078	-21.323730	-64.280922
987.246277	-97.980942	-125.685875	-118.963715
987.614929	-68.158394	-3.948147	-54.344082
987.983459	-80.582550	-73.481392	-71.734627
988.351807	-30.901531	-103.306679	-61.796516
988.720215	1.368541	-46.154892	-56.828167
989.088623	-102.952950	-73.481392	-81.674423
989.456909	23.699129	-48.638626	-64.280922
989.825012	-16.005474	-98.334778	-34.475479
990.193115	-55.736755	-23.806414	-4.685324
990.561279	-8.558860	-56.090332	-56.828167
990.929321	-55.736755	40.708496	-7.167171
991.297302	6.331683	3.496945	-46.892597
991.665100	-20.970362	-33.738064	-22.061125
992.033020	3.850164	-53.606281	-29.509449
992.400818	-28.418549	77.896660	5.241426
992.768494	38.581429	3.496945	-54.344082
993.136047	-40.834385	-51.122467	-7.167171
993.503723	-50.768921	-46.154892	-12.131448
993.871277	-16.005474	-78.451164	-69.249901
994.238770	41.061493	10.941098	15.166507
994.606140	-48.285095	-13.876443	-27.026524
994.973450	23.699129	8.459772	-74.219315
995.340759	-20.970362	-51.122467	-4.685324
995.708008	13.775479	-48.638626	-17.096010
996.075195	-93.009499	-41.187870	-27.026524
996.442200	-55.736755	-68.512047	-71.734627
996.809265	-6.076819	-16.358812	-46.892597
997.176270	-1.113051	-56.090332	42.451881
997.543152	-18.487799	-41.187870	10.204242
997.910095	-33.384621	-75.966293	-49.376228
998.276733	-35.867680	-26.289066	-31.992344
998.643494	-45.801373	-48.638626	-9.649258
999.010193	-33.384621	-48.638626	20.128357
999.376831	-53.252720	-43.671261	-79.189285
999.743286	18.737444	5.978478	7.722886
1000.109802	-43.317894	-28.771961	0.278327
1000.476257	-48.285095	-3.948147	-22.061125
1000.842651	33.620987	-31.254961	-17.096010
1001.208923	-88.038345	-63.542992	-29.509449
1001.575134	-53.252720	-23.806414	-4.685324
1001.941284	-65.673828	1.015307	-4.685324
1002.307434	3.850164	-1.466300	-24.543703
1002.673523	-53.252720	-28.771961	0.278327
1003.039429	-80.582550	-51.122467	-69.249901
1003.405334	-53.252720	-43.671261	-79.189285
1003.771179	-105.438980	-58.574493	-27.026524
1004.137024	18.737444	-6.430098	72.203392
1004.502808	-68.158394	-16.358812	20.128357
1004.868408	16.256447	-18.841150	-17.096010
1005.234009	16.256447	-75.966293	-19.578514
1005.599609	-8.558860	-11.394178	-27.026524
1005.965149	-63.189365	8.459772	42.451881
1006.330444	-20.970362	1.015307	54.850101
1006.695862	-45.801373	-41.187870	12.685359
1007.061218	-30.901531	-68.512047	-22.061125
1007.426453	23.699129	-98.334778	12.685359
1007.791626	-45.801373	-26.289066	0.278327
1008.156677	-13.523120	-33.738064	49.891148
1008.521729	-8.558860	-18.841150	-36.958721
1008.886780	-28.418549	-21.323730	-41.925381
1009.251709	-53.252720	-103.306679	-39.442066
1009.616577	-40.834385	-21.323730	-56.828167
1009.981384	-45.801373	-33.738064	-91.615799
1010.346130	-100.466896	-21.323730	-79.189285
1010.710754	8.812963	-1.466300	-14.613609
1011.075439	-16.005474	48.147984	32.531364
1011.439941	28.660265	-75.966293	-56.828167
1011.804443	-16.005474	-58.574493	-34.475479
1012.168884	-60.705147	-21.323730	-51.860104
1012.533325	-43.317894	-51.122467	-99.073143
1012.897522	-28.418549	-61.058620	-31.992344
1013.261780	13.775479	-28.771961	-49.376228
1013.626038	1.368541	-78.451164	7.722886
1013.990112	-73.127708	-46.154892	-101.559013
1014.354187	-53.252720	-3.948147	10.204242
1014.718140	53.459999	-46.154892	-24.543703
1015.082153	-16.005474	-75.966293	-76.704247
1015.446045	43.541321	-31.254961	-31.992344
1015.809937	-110.411629	-75.966293	-59.312222
1016.173523	-105.438980	-28.771961	-126.424461
1016.537170	-45.801373	-70.996605	-59.312222
1016.900879	-25.935804	-56.090332	27.570553
1017.264404	-20.970362	-23.806414	5.241426
1017.627991	-3.594883	28.307194	-29.509449
1017.991333	-83.067757	-23.806414	2.759996
1018.354675	-28.418549	-16.358812	-31.992344
1018.718018	-55.736755	-16.358812	-14.613609
1019.081299	-40.834385	-48.638626	20.128357
1019.444397	68.334869	-53.606281	-64.280922
1019.807495	-53.252720	-3.948147	-46.892597
1020.170593	-33.384621	25.826595	-9.649258
1020.533691	3.850164	-68.512047	-31.992344
1020.896606	-30.901531	-28.771961	15.166507
1021.259460	-68.158394	-11.394178	-89.130363
1021.622253	1.368541	-43.671261	-44.408936
1021.985046	-68.158394	-13.876443	30.050945
1022.347778	-38.350979	1.015307	-66.765289
1022.710327	-107.925255	-38.704453	-31.992344
1023.072876	18.737444	1.015307	-19.578514
1023.435364	-25.935804	-38.704453	-46.892597
1023.797852	-78.097450	-58.574493	-64.280922
1024.160278	-25.935804	-18.841150	-31.992344
1024.522461	-45.801373	-26.289066	-41.925381
1024.884766	-55.736755	-18.841150	-51.860104
1025.246948	-43.317894	35.748230	-4.685324
1025.609131	-70.642929	18.384315	-34.475479
1025.971069	-73.127708	-18.841150	-36.958721
1026.333130	-11.040870	-66.027466	-14.613609
1026.694946	-88.038345	-11.394178	-46.892597
1027.056885	1.368541	-75.966293	32.531364
1027.418823	21.218338	-68.512047	-94.101479
1027.780396	-78.097450	-70.996605	17.647551
1028.142090	28.660265	-31.254961	-96.587257
1028.503784	-93.009499	-36.221138	-4.685324
1028.865479	-25.935804	-53.606281	-101.559013
1029.226807	-3.594883	-41.187870	-31.992344
1029.588135	6.331683	-28.771961	-31.992344
1029.949707	-43.317894	-63.542992	-46.892597
1030.310913	-25.935804	-78.451164	-36.958721
1030.672241	-40.834385	-75.966293	12.685359
1031.033325	-35.867680	18.384315	-22.061125
1031.394531	-35.867680	-118.225227	-17.096010
1031.755493	-8.558860	-13.876443	-94.101479
1032.116577	-132.793457	55.586540	-71.734627
1032.477417	50.980453	-43.671261	30.050945
1032.838257	-93.009499	-6.430098	-51.860104
1033.199097	13.775479	-21.323730	27.570553
1033.559937	1.368541	-85.906693	42.451881
1033.920654	33.620987	38.228416	-61.796516
1034.281128	46.021179	-33.738064	15.166507
1034.641724	-78.097450	-11.394178	-56.828167
1035.002197	-16.005474	-46.154892	15.166507
1035.362671	-16.005474	-53.606281	-89.130363
1035.722900	-11.040870	10.941098	-14.613609
1036.083252	-60.705147	-103.306679	22.609192
1036.443481	-60.705147	-73.481392	-71.734627
1036.803711	-43.317894	-95.848923	-59.312222
1037.163940	-11.040870	-41.187870	12.685359
1037.523804	60.897896	18.384315	27.570553
1037.883789	-45.801373	-21.323730	-51.860104
1038.243774	-50.768921	-63.542992	-74.219315
1038.603638	-48.285095	-38.704453	-54.344082
1038.963257	-45.801373	-56.090332	-4.685324
1039.323120	-45.801373	28.307194	-79.189285
1039.682861	-58.220898	5.978478	-4.685324
>>>>>End Processed Spectral Data<<<<<
