Jaz Data File
++++++++++++++++++++++++++++++++++++
Date: Sat Dec 06 17:06:09 2014
User: jaz
Dark Spectrum Present: Yes
Reference Spectrum Present: Yes
Processed Spectrum Present: No
Spectrometers: JAZA2310
Integration Time (usec): 11700 (JAZA2310)
Spectra Averaged: 1 (JAZA2310)
Boxcar Smoothing: 0 (JAZA2310)
Correct for Electrical Dark: Yes (JAZA2310)
Strobe/Lamp Enabled: No (JAZA2310)
Correct for Detector Non-linearity: Yes (JAZA2310)
Correct for Stray Light: No (JAZA2310)
Number of Pixels in Processed Spectrum: 2048
>>>>>Begin Processed Spectral Data<<<<<
W	D	R	S
188.301102	0.000000	0.000000	0.000000
188.764923	0.000000	0.000000	0.000000
189.228699	-74.415413	7.895637	-83.707794
189.692459	-54.539982	-61.623558	-4.234053
190.156158	-12.327209	-21.888287	-29.057987
190.619812	-22.256920	-71.561638	-68.798134
191.083435	-54.539982	5.414184	-98.621147
191.547043	-22.256920	37.664425	-58.860664
192.010590	-52.056133	22.781900	-4.234053
192.474091	-74.415413	-46.719688	57.780289
192.937561	-14.809513	5.414184	-78.737434
193.401001	-34.671452	0.451100	67.696602
193.864410	54.654564	-16.923185	35.462517
194.327759	-22.256920	15.339235	15.617626
194.791077	54.654564	45.104427	-58.860664
195.254349	-24.739643	-26.853672	13.136497
195.717575	5.045722	22.781900	42.902794
196.180786	-37.154564	-16.923185	-9.197948
196.643951	29.855324	35.184357	0.729425
197.107071	-12.327209	-2.030666	47.862324
197.570145	7.527056	27.743246	15.617626
198.033203	52.175060	82.289848	-24.092417
198.496216	7.527056	-21.888287	-21.609720
198.959167	-29.705269	-21.888287	-86.192993
199.422089	0.082472	79.811501	28.021444
199.884979	-4.881060	40.144531	-34.023979
200.347855	14.970702	57.502094	13.136497
200.810654	76.965027	45.104427	-16.644644
201.273422	47.215889	5.414184	-19.127131
201.736160	-76.900360	7.895637	-66.313675
202.198853	10.008420	20.301071	-56.376495
202.661514	47.215889	87.246254	20.579437
203.124130	-76.900360	10.376986	-53.892429
203.586700	42.256165	17.820272	-53.892429
204.049240	-39.637917	-2.030666	-48.924751
204.511734	-66.961372	72.375954	-31.541000
204.974197	-47.088478	22.781900	3.211074
205.436615	-34.671452	47.584087	-103.593079
205.899002	34.815945	-16.923185	20.579437
206.361343	-37.154564	0.451100	-83.707794
206.823654	-12.327209	42.624531	-43.957359
207.285919	-29.705269	12.858095	-19.127131
207.748123	-14.809513	47.584087	3.211074
208.210327	-49.572250	-36.785839	-46.441002
208.672485	-29.705269	20.301071	-19.127131
209.134583	-34.671452	15.339235	23.060255
209.596649	-47.088478	-11.958639	-58.860664
210.058670	-86.841042	10.376986	-76.252419
210.520676	-52.056133	20.301071	-16.644644
210.982635	-29.705269	-98.900085	-86.192993
211.444534	-134.082489	55.022717	-41.473957
211.906403	-64.476852	22.781900	-38.990528
212.368240	-42.121376	-19.405684	-63.829189
212.830048	-74.415413	22.781900	-68.798134
213.291779	-17.291922	-21.888287	-76.252419
213.753494	-74.415413	-31.819477	-81.222565
214.215179	-17.291922	-88.957329	-24.092417
214.676819	-71.930580	-11.958639	-36.507202
215.138412	14.970702	-2.030666	-63.829189
215.599960	-54.539982	-26.853672	32.982353
216.061493	-37.154564	0.451100	-43.957359
216.522949	-79.385269	-29.336588	-96.135277
216.984406	-9.845144	-29.336588	-38.990528
217.445801	-79.385269	15.339235	-68.798134
217.907166	-54.539982	12.858095	-96.135277
218.368484	-42.121376	62.460552	-14.162397
218.829773	2.564149	-69.076927	-101.107124
219.291031	22.413546	47.584087	-58.860664
219.752228	7.527056	-14.440793	10.655263
220.213379	34.815945	-21.888287	13.136497
220.674500	-14.809513	-74.046318	5.692620
221.135574	10.008420	57.502094	57.780289
221.596634	-52.056133	-71.561638	-41.473957
222.057648	-34.671452	-11.958639	-11.680120
222.518600	-101.755203	27.743246	-41.473957
222.979553	7.527056	22.781900	25.540968
223.440430	-94.297646	-26.853672	23.060255
223.901276	-101.755203	-6.994376	-81.222565
224.362076	5.045722	-56.655224	-31.541000
224.822845	12.489680	47.584087	-9.197948
225.283569	-96.783302	5.414184	-43.957359
225.744278	-76.900360	-49.203312	-88.678444
226.204910	-29.705269	20.301071	-41.473957
226.665512	-4.881060	-11.958639	-31.541000
227.126114	-99.269203	52.543365	-24.092417
227.586639	-86.841042	-21.888287	8.174062
228.047119	10.008420	-2.030666	-108.565567
228.507568	-9.845144	-71.561638	-101.107124
228.967972	-84.355675	15.339235	87.524178
229.428345	-104.241318	-93.928421	-9.197948
229.888687	-69.445992	22.781900	-78.737434
230.348984	12.489680	-56.655224	-19.127131
230.809219	-14.809513	-39.269176	-41.473957
231.269440	24.894152	-41.752483	28.021444
231.729614	-29.705269	-14.440793	-68.798134
232.189758	-24.739643	-39.269176	-61.344803
232.649841	-119.159973	47.584087	30.501949
233.109894	19.932701	45.104427	35.462517
233.569901	-17.291922	32.704044	5.692620
234.029892	-49.572250	-11.958639	-38.990528
234.489822	-69.445992	45.104427	0.729425
234.949707	-42.121376	-41.752483	-48.924751
235.409561	-44.604942	47.584087	20.579437
235.869385	-39.637917	0.451100	-86.192993
236.329163	-52.056133	-29.336588	-1.752195
236.788895	-4.881060	-61.623558	25.540968
237.248581	-4.881060	-44.236034	15.617626
237.708237	-27.222471	-24.370859	-14.162397
238.167847	-52.056133	126.882118	-66.313675
238.627441	52.175060	-54.171150	10.655263
239.086960	-52.056133	30.223631	-11.680120
239.546463	-109.213730	-26.853672	-46.441002
240.005920	-17.291922	-21.888287	-21.609720
240.465332	-24.739643	42.624531	8.174062
240.924698	-59.508274	32.704044	-41.473957
241.384033	-64.476852	-39.269176	30.501949
241.843338	-17.291922	-19.405684	18.098516
242.302597	-101.755203	-51.687176	-66.313675
242.761810	44.736080	-19.405684	15.617626
243.220993	-27.222471	-6.994376	-48.924751
243.680115	-27.222471	-16.923185	-51.408470
244.139221	-14.809513	0.451100	-118.511688
244.598282	-61.992577	-16.923185	-43.957359
245.057297	7.527056	-9.476456	-53.892429
245.516266	37.296165	-101.385933	-58.860664
245.975189	-39.637917	25.262625	-38.990528
246.434082	-39.637917	25.262625	-61.344803
246.892944	7.527056	2.932626	-43.957359
247.351761	-74.415413	62.460552	32.982353
247.810516	-52.056133	7.895637	-46.441002
248.269272	-119.159973	-11.958639	-19.127131
248.727951	-2.399309	-24.370859	-21.609720
249.186600	-14.809513	-31.819477	90.002213
249.645218	-54.539982	5.414184	-43.957359
250.103790	5.045722	27.743246	-38.990528
250.562317	-74.415413	2.932626	-53.892429
251.020813	-74.415413	-59.139275	-76.252419
251.479279	-61.992577	77.333176	-103.593079
251.937668	-34.671452	22.781900	3.211074
252.396057	2.564149	-11.958639	-16.644644
252.854385	-44.604942	20.301071	-9.197948
253.312683	-66.961372	30.223631	-61.344803
253.770920	34.815945	67.418457	-41.473957
254.229126	19.932701	-14.440793	25.540968
254.687302	12.489680	-21.888287	-14.162397
255.145432	-89.326378	30.223631	45.382542
255.603500	-24.739643	-49.203312	-31.541000
256.061584	-52.056133	35.184357	80.089584
256.519592	-29.705269	5.414184	18.098516
256.977570	-116.673218	-29.336588	-61.344803
257.435455	-2.399309	-2.030666	-43.957359
257.893372	-49.572250	32.704044	45.382542
258.351196	-39.637917	20.301071	-43.957359
258.808990	-2.399309	40.144531	-98.621147
259.266754	-71.930580	25.262625	-4.234053
259.724487	-106.727402	32.704044	-16.644644
260.182190	-54.539982	5.414184	15.617626
260.639832	-9.845144	-24.370859	-9.197948
261.097443	-34.671452	5.414184	-71.282837
261.554993	-34.671452	-11.958639	-71.282837
262.012512	-2.399309	-66.592316	-4.234053
262.469971	2.564149	-36.785839	55.300919
262.927429	29.855324	0.451100	-31.541000
263.384827	62.092308	45.104427	-34.023979
263.842194	-47.088478	-6.994376	45.382542
264.299530	-44.604942	5.414184	-58.860664
264.756805	-141.545197	15.339235	52.821445
265.214050	-86.841042	-79.016273	-1.752195
265.671234	-76.900360	27.743246	-31.541000
266.128387	-39.637917	-121.277435	25.540968
266.585510	-44.604942	-64.107956	-48.924751
267.042572	-29.705269	32.704044	-14.162397
267.499573	-17.291922	-34.302605	-29.057987
267.956604	2.564149	25.262625	-61.344803
268.413574	-24.739643	62.460552	23.060255
268.870483	-101.755203	-16.923185	-46.441002
269.327362	64.571396	40.144531	-68.798134
269.784180	0.082472	5.414184	-16.644644
270.240936	-101.755203	-24.370859	-19.127131
270.697693	-34.671452	-6.994376	3.211074
271.154419	-42.121376	62.460552	-38.990528
271.611053	-119.159973	-41.752483	-19.127131
272.067688	5.045722	-56.655224	-71.282837
272.524292	-76.900360	-36.785839	5.692620
272.980835	-14.809513	-88.957329	10.655263
273.437347	-34.671452	-11.958639	-83.707794
273.893799	7.527056	74.854614	-11.680120
274.350250	-66.961372	52.543365	-6.716016
274.806610	-24.739643	-49.203312	-88.678444
275.262939	39.776283	64.939484	-51.408470
275.719238	-17.291922	0.451100	-138.408966
276.175507	-4.881060	-9.476456	-83.707794
276.631714	-66.961372	-36.785839	-78.737434
277.087891	-34.671452	-26.853672	-21.609720
277.544067	-34.671452	-21.888287	-29.057987
278.000122	-42.121376	-21.888287	-16.644644
278.456177	-64.476852	2.932626	-43.957359
278.912201	-7.363050	52.543365	-56.376495
279.368164	-64.476852	20.301071	-48.924751
279.824097	14.970702	10.376986	-11.680120
280.279968	5.045722	35.184357	-86.192993
280.735840	-19.774302	2.932626	-16.644644
281.191620	-89.326378	-41.752483	-98.621147
281.647400	-37.154564	22.781900	-26.575083
282.103149	-19.774302	-24.370859	-58.860664
282.558838	-64.476852	10.376986	-4.234053
283.014465	-104.241318	15.339235	-53.892429
283.470062	-34.671452	-14.440793	3.211074
283.925629	-81.870422	40.144531	-24.092417
284.381134	-106.727402	-36.785839	-61.344803
284.836639	-17.291922	-14.440793	-43.957359
285.292053	-19.774302	-39.269176	-36.507202
285.747467	29.855324	35.184357	3.211074
286.202820	72.007912	27.743246	-58.860664
286.658142	-32.188305	27.743246	32.982353
287.113434	-7.363050	25.262625	-14.162397
287.568634	47.215889	-81.501411	-43.957359
288.023804	-57.024075	57.502094	57.780289
288.478973	-57.024075	32.704044	-46.441002
288.934113	-86.841042	20.301071	52.821445
289.389130	-57.024075	-19.405684	-24.092417
289.844208	0.082472	-9.476456	20.579437
290.299164	-57.024075	-49.203312	32.982353
290.754089	-126.620743	10.376986	-63.829189
291.208984	-96.783302	17.820272	20.579437
291.663879	-9.845144	-81.501411	-16.644644
292.118683	-52.056133	50.063778	-66.313675
292.573456	27.374788	-51.687176	-11.680120
293.028198	5.045722	20.301071	35.462517
293.482849	-149.008881	-39.269176	-81.222565
293.937561	-34.671452	-26.853672	25.540968
294.392151	-22.256920	-46.719688	52.821445
294.846741	-22.256920	-24.370859	5.692620
295.301239	-44.604942	17.820272	3.211074
295.755737	-54.539982	2.932626	-78.737434
296.210175	-17.291922	-66.592316	-19.127131
296.664581	-12.327209	25.262625	-19.127131
297.118958	-14.809513	-2.030666	-88.678444
297.573242	-54.539982	-66.592316	-6.716016
298.027557	-66.961372	-11.958639	-88.678444
298.481812	-54.539982	30.223631	-78.737434
298.935974	10.008420	-34.302605	-19.127131
299.390137	-47.088478	-21.888287	-19.127131
299.844238	-84.355675	17.820272	-34.023979
300.298340	-99.269203	7.895637	-4.234053
300.752350	-27.222471	27.743246	-14.162397
301.206360	-4.881060	-51.687176	-66.313675
301.660278	-84.355675	-19.405684	-51.408470
302.114197	-91.811958	-4.512537	-78.737434
302.568054	-47.088478	-24.370859	-26.575083
303.021881	-44.604942	-34.302605	-66.313675
303.475677	-54.539982	-31.819477	47.862324
303.929413	29.855324	0.451100	10.655263
304.383118	-116.673218	10.376986	85.046173
304.836761	-17.291922	30.223631	-53.892429
305.290375	7.527056	-36.785839	-68.798134
305.743958	-17.291922	52.543365	5.692620
306.197510	-47.088478	37.664425	-16.644644
306.650970	-39.637917	-34.302605	5.692620
307.104431	-22.256920	-29.336588	15.617626
307.557800	59.613117	-24.370859	-61.344803
308.011169	37.296165	37.664425	75.132729
308.464508	-9.845144	40.144531	-14.162397
308.917755	-27.222471	-46.719688	-31.541000
309.371063	-39.637917	25.262625	-41.473957
309.824219	-84.355675	-14.440793	15.617626
310.277374	-24.739643	-11.958639	-66.313675
310.730499	-116.673218	32.704044	70.175323
311.183563	0.082472	-19.405684	0.729425
311.636597	-61.992577	-11.958639	-81.222565
312.089569	-17.291922	-2.030666	-19.127131
312.542511	72.007912	-31.819477	25.540968
312.995422	-27.222471	0.451100	-6.716016
313.448273	-34.671452	22.781900	-56.376495
313.901093	-76.900360	-2.030666	-46.441002
314.353882	-4.881060	-16.923185	-113.538345
314.806580	-79.385269	35.184357	-26.575083
315.259308	0.082472	-9.476456	-61.344803
315.711975	-49.572250	-6.994376	-4.234053
316.164581	-59.508274	10.376986	-6.716016
316.617126	-54.539982	-96.414200	-41.473957
317.069672	-34.671452	-39.269176	0.729425
317.522156	-71.930580	-9.476456	-26.575083
317.974579	-42.121376	-16.923185	-6.716016
318.427002	-12.327209	-29.336588	-51.408470
318.879333	-17.291922	30.223631	5.692620
319.331665	7.527056	-26.853672	13.136497
319.783936	-19.774302	-66.592316	-11.680120
320.236176	19.932701	-44.236034	-11.680120
320.688354	10.008420	32.704044	30.501949
321.140503	-39.637917	-61.623558	-101.107124
321.592651	-69.445992	-16.923185	-51.408470
322.044647	-52.056133	52.543365	-34.023979
322.496704	-44.604942	-16.923185	-11.680120
322.948639	-22.256920	-11.958639	67.696602
323.400604	7.527056	-54.171150	-1.752195
323.852509	-59.508274	94.679955	-46.441002
324.304352	-39.637917	-66.592316	5.692620
324.756165	-124.133667	-11.958639	-118.511688
325.207916	-42.121376	-56.655224	80.089584
325.659668	14.970702	-34.302605	-14.162397
326.111328	-66.961372	-39.269176	37.942715
326.562988	-42.121376	-26.853672	-78.737434
327.014557	-57.024075	89.724167	-68.798134
327.466156	-4.881060	7.895637	-34.023979
327.917664	-71.930580	82.289848	-51.408470
328.369110	12.489680	10.376986	23.060255
328.820557	-32.188305	12.858095	-21.609720
329.271942	-54.539982	-44.236034	-78.737434
329.723297	-81.870422	12.858095	-38.990528
330.174561	-39.637917	0.451100	-1.752195
330.625854	-54.539982	-26.853672	-58.860664
331.077026	-17.291922	-24.370859	-46.441002
331.528229	-29.705269	10.376986	-38.990528
331.979370	10.008420	25.262625	-29.057987
332.430450	-34.671452	47.584087	-9.197948
332.881500	-7.363050	-86.471870	-16.644644
333.332489	-61.992577	-24.370859	-34.023979
333.783478	-76.900360	15.339235	28.021444
334.234406	-71.930580	10.376986	-29.057987
334.685303	5.045722	17.820272	8.174062
335.136078	-71.930580	89.724167	-4.234053
335.586914	-32.188305	-4.512537	-76.252419
336.037659	-24.739643	-11.958639	25.540968
336.488342	10.008420	99.635208	-46.441002
336.939026	42.256165	25.262625	-16.644644
337.389648	44.736080	25.262625	-34.023979
337.840240	-17.291922	107.067375	-58.860664
338.290771	-34.671452	87.246254	-11.680120
338.741272	-19.774302	20.301071	-38.990528
339.191681	-47.088478	-4.512537	60.259556
339.642120	-44.604942	-51.687176	-16.644644
340.092468	-74.415413	0.451100	55.300919
340.542816	-12.327209	5.414184	0.729425
340.993103	-24.739643	2.932626	52.821445
341.443329	-61.992577	-66.592316	10.655263
341.893555	-49.572250	-36.785839	-1.752195
342.343689	-17.291922	-24.370859	0.729425
342.793793	-14.809513	-4.512537	-1.752195
343.243866	-12.327209	10.376986	30.501949
343.693878	-91.811958	30.223631	-118.511688
344.143890	-12.327209	2.932626	32.982353
344.593842	-39.637917	37.664425	-106.079262
345.043732	-14.809513	-34.302605	-41.473957
345.493591	-49.572250	-46.719688	-53.892429
345.943359	-69.445992	74.854614	-29.057987
346.393158	-71.930580	5.414184	-34.023979
346.842896	-84.355675	32.704044	15.617626
347.292542	52.175060	5.414184	-19.127131
347.742218	10.008420	79.811501	0.729425
348.191803	-69.445992	35.184357	18.098516
348.641357	-4.881060	-14.440793	-63.829189
349.090881	-24.739643	10.376986	-26.575083
349.540314	-54.539982	22.781900	-76.252419
349.989777	-124.133667	2.932626	-11.680120
350.439148	-47.088478	72.375954	-63.829189
350.888489	-9.845144	22.781900	-61.344803
351.337799	-44.604942	12.858095	5.692620
351.787048	-49.572250	2.932626	37.942715
352.236267	29.855324	57.502094	25.540968
352.685425	-42.121376	52.543365	20.579437
353.134552	-12.327209	5.414184	60.259556
353.583649	-34.671452	-4.512537	-11.680120
354.032684	-32.188305	-24.370859	18.098516
354.481659	-79.385269	37.664425	-16.644644
354.930634	-2.399309	47.584087	5.692620
355.379517	-57.024075	-9.476456	-14.162397
355.828430	-32.188305	-14.440793	30.501949
356.277222	-94.297646	59.981377	-68.798134
356.726013	64.571396	69.897324	-16.644644
357.174774	-37.154564	12.858095	-36.507202
357.623444	-81.870422	-36.785839	5.692620
358.072113	-42.121376	-34.302605	-29.057987
358.520721	-66.961372	42.624531	-66.313675
358.969299	-9.845144	22.781900	-38.990528
359.417786	0.082472	-79.016273	-11.680120
359.866302	-61.992577	-2.030666	-43.957359
360.314697	-29.705269	10.376986	-21.609720
360.763123	-19.774302	25.262625	-31.541000
361.211456	-94.297646	17.820272	-11.680120
361.659760	-61.992577	7.895637	-98.621147
362.108032	-49.572250	0.451100	-1.752195
362.556244	-54.539982	27.743246	-29.057987
363.004456	-69.445992	55.022717	-29.057987
363.452576	-9.845144	12.858095	-48.924751
363.900696	-42.121376	30.223631	-68.798134
364.348663	-86.841042	37.664425	-51.408470
364.796722	-2.399309	-59.139275	-51.408470
365.244690	-71.930580	10.376986	18.098516
365.692596	-57.024075	32.704044	15.617626
366.140472	-19.774302	112.021736	-31.541000
366.588287	-24.739643	-39.269176	-16.644644
367.036102	-52.056133	55.022717	-53.892429
367.483826	-96.783302	69.897324	25.540968
367.931549	12.489680	10.376986	40.422802
368.379181	-27.222471	77.333176	-16.644644
368.826843	19.932701	47.584087	-4.234053
369.274384	5.045722	124.405594	-24.092417
369.721924	19.932701	77.333176	-43.957359
370.169403	-37.154564	5.414184	28.021444
370.616821	-7.363050	-19.405684	60.259556
371.064270	12.489680	37.664425	-24.092417
371.511566	-17.291922	-19.405684	-31.541000
371.958923	-69.445992	67.418457	75.132729
372.406158	-19.774302	30.223631	-26.575083
372.853424	-34.671452	55.022717	60.259556
373.300568	22.413546	59.981377	32.982353
373.747711	-4.881060	82.289848	-68.798134
374.194794	-47.088478	64.939484	-41.473957
374.641846	-52.056133	35.184357	-53.892429
375.088898	-71.930580	64.939484	-53.892429
375.535828	-66.961372	12.858095	40.422802
375.982758	-61.992577	7.895637	35.462517
376.429596	5.045722	0.451100	67.696602
376.876465	-57.024075	22.781900	87.524178
377.323242	-22.256920	22.781900	-26.575083
377.769989	-64.476852	0.451100	5.692620
378.216675	-9.845144	15.339235	40.422802
378.663330	-134.082489	25.262625	15.617626
379.109985	-54.539982	64.939484	-43.957359
379.556519	-39.637917	-14.440793	35.462517
380.003052	-171.405899	64.939484	30.501949
380.449524	2.564149	52.543365	-26.575083
380.895996	-4.881060	94.679955	-16.644644
381.342377	-79.385269	119.452377	-29.057987
381.788727	-14.809513	82.289848	-26.575083
382.235046	57.133957	-14.440793	13.136497
382.681274	-74.415413	47.584087	-19.127131
383.127533	-29.705269	82.289848	-16.644644
383.573669	-61.992577	82.289848	25.540968
384.019836	-39.637917	67.418457	-4.234053
384.465912	-64.476852	74.854614	117.253479
384.911957	-12.327209	74.854614	32.982353
385.357971	-52.056133	69.897324	30.501949
385.803925	-19.774302	72.375954	67.696602
386.249847	-34.671452	136.787048	-4.234053
386.695679	-2.399309	89.724167	107.345337
387.141541	-27.222471	50.063778	-29.057987
387.587311	-17.291922	168.966843	15.617626
388.033051	24.894152	77.333176	142.016647
388.478729	0.082472	84.768105	52.821445
388.924408	22.413546	77.333176	82.567932
389.369995	-34.671452	87.246254	92.480148
389.815552	27.374788	124.405594	80.089584
390.261078	-39.637917	94.679955	94.957848
390.706543	-7.363050	149.165848	146.968018
391.152008	-9.845144	164.017258	216.245834
391.597351	-54.539982	211.022583	206.353775
392.042725	-19.774302	223.386505	169.244522
392.487976	-4.881060	304.926147	97.435570
392.933289	-42.121376	267.875854	159.344879
393.378479	-79.385269	203.603104	189.038879
393.823639	32.335617	235.747818	273.094299
394.268768	-37.154564	329.614105	228.608704
394.713837	12.489680	351.825012	238.497208
395.158905	-22.256920	319.740051	273.094299
395.603851	-4.881060	344.422241	344.699127
396.048798	-49.572250	440.591217	369.371582
396.493683	29.855324	462.763519	487.666809
396.938568	-54.539982	393.757874	376.771423
397.383392	19.932701	455.373596	497.515015
397.828156	-42.121376	600.555481	517.206848
398.272888	-14.809513	644.784729	527.050598
398.717560	-14.809513	703.711548	586.081787
399.162201	-22.256920	637.415222	627.863647
399.606781	-12.327209	752.778320	674.530090
400.051361	47.215889	745.420471	767.766296
400.495819	-2.399309	870.395142	833.936157
400.940308	24.894152	885.083191	841.284302
401.384705	-47.088478	1112.360352	1005.195374
401.829102	29.855324	1124.559082	1054.050903
402.273438	49.695457	1219.641357	1014.969299
402.717682	-34.671452	1187.960938	1154.102051
403.161926	-57.024075	1372.979858	1219.914673
403.606110	-29.705269	1375.411011	1317.308228
404.050293	10.008420	1530.864014	1468.021484
404.494385	29.855324	1707.802368	1395.132568
404.938446	-24.739643	1828.769043	1538.415649
405.382477	7.527056	1777.984863	1654.791748
405.826447	-79.385269	2036.418823	1853.212158
406.270386	-89.326378	2168.951416	1824.205078
406.714233	-49.572250	2390.192383	1961.898315
407.158081	-69.445992	2464.617188	2188.481934
407.601868	24.894152	2723.430664	2289.529785
408.045624	-19.774302	2780.846924	2443.285645
408.489319	32.335617	3065.025391	2651.879150
408.933014	-89.326378	3326.977539	2623.135742
409.376617	5.045722	3450.571289	2761.980225
409.820190	-42.121376	3555.033936	3041.444336
410.263702	-27.222471	3758.906250	3193.973389
410.707184	-17.291922	4137.163086	3434.208740
411.150635	-4.881060	4321.084961	3614.606201
411.594025	0.082472	4544.680664	3808.894775
412.037384	12.489680	4852.281250	4007.552734
412.480682	-32.188305	4999.917480	4269.504883
412.923981	-44.604942	5364.690430	4368.458984
413.367126	-12.327209	5784.193359	4629.558105
413.810333	-76.900360	6081.623535	4850.199219
414.253479	-52.056133	6227.750000	5168.677246
414.696533	-81.870422	6644.310059	5423.304199
415.139587	-17.291922	7031.856934	5665.744141
415.582581	-44.604942	7227.489746	6026.170410
416.025543	-89.326378	7686.635742	6177.001465
416.468414	12.489680	8349.558594	6584.484863
416.911285	-22.256920	8604.708008	6942.254395
417.354065	-27.222471	9208.788086	7066.660156
417.796875	-57.024075	9430.686523	7407.007813
418.239594	-27.222471	9983.930664	7968.467285
418.682281	17.451754	10416.042969	8169.552734
419.124908	-2.399309	10889.501953	8538.943359
419.567505	10.008420	11424.090820	9068.477539
420.010071	17.451754	11907.987305	9410.577148
420.452545	-27.222471	12563.710938	9787.967773
420.895020	84.400002	12980.421875	9977.421875
421.337372	-129.107925	13687.819336	10454.493164
421.779785	29.855324	14192.728516	10813.559570
422.222107	-57.024075	14657.093750	11326.054688
422.664368	37.296165	15355.599609	11750.060547
423.106628	-116.673218	16219.262695	12492.942383
423.548798	5.045722	16862.785156	13018.310547
423.990967	-81.870422	17239.011719	13383.281250
424.433044	-24.739643	17910.250000	13855.749023
424.875092	-4.881060	18415.218750	13926.317383
425.317078	17.451754	19086.392578	14569.365234
425.759064	-32.188305	20046.728516	15156.107422
426.200989	-64.476852	20539.361328	15682.663086
426.642853	24.894152	21203.404297	16180.088867
427.084686	-27.222471	21809.005859	16475.683594
427.526459	-39.637917	22844.328125	17062.099609
427.968201	-24.739643	22921.363281	17704.996094
428.409912	-96.783302	24153.656250	18181.562500
428.851563	-34.671452	24940.347656	18935.771484
429.293121	-47.088478	25272.248047	19108.505859
429.734711	-9.845144	26289.320313	19727.484375
430.176239	-29.705269	26846.335938	20084.181641
430.617706	-54.539982	27599.423828	20384.115234
431.059113	-91.811958	28958.394531	21420.791016
431.500488	-96.783302	29501.435547	21780.710938
431.941833	37.296165	30467.416016	22771.957031
432.383087	-29.705269	30970.343750	22945.824219
432.824341	32.335617	31731.115234	23860.376953
433.265533	-47.088478	33097.753906	24257.681641
433.706726	-74.415413	33186.562500	25071.113281
434.147827	0.082472	34677.152344	25815.115234
434.588867	7.527056	35184.558594	26502.546875
435.029877	-79.385269	36285.273438	27397.437500
435.470825	-9.845144	37220.109375	27628.566406
435.911804	-32.188305	37841.066406	28362.369141
436.352661	-9.845144	38890.480469	28927.492188
436.793518	-71.930580	39276.382813	29592.941406
437.234283	-27.222471	40828.839844	30959.468750
437.675049	0.082472	41597.410156	31037.345703
438.115723	-42.121376	42187.351563	31835.875000
438.556396	5.045722	43411.652344	32313.826172
438.997040	-57.024075	44564.847656	33288.937500
439.437561	62.092308	44837.691406	33748.316406
439.878113	-42.121376	45993.957031	34466.835938
440.318573	-52.056133	46243.007813	34728.371094
440.759033	-19.774302	47131.519531	35685.375000
441.199341	-39.637917	48739.113281	36664.246094
441.639709	14.970702	49077.082031	37122.847656
442.079956	67.050247	49811.218750	37603.925781
442.520264	44.736080	50508.441406	37930.097656
442.960510	-39.637917	51787.054688	39274.398438
443.400604	-9.845144	51777.500000	39247.609375
443.840759	7.527056	52511.800781	39755.296875
444.280762	-59.508274	53291.222656	40447.390625
444.720825	-109.213730	53634.183594	40731.824219
445.160767	-59.508274	54543.894531	41916.078125
445.600739	-71.930580	55167.605469	41985.000000
446.040558	-34.671452	55424.179688	42067.808594
446.480438	22.413546	55390.554688	42844.003906
446.920258	-47.088478	56343.460938	43202.289063
447.359955	12.489680	55812.601563	43188.183594
447.799713	-106.727402	57845.601563	44562.691406
448.239319	-54.539982	56578.097656	43707.972656
448.678955	-12.327209	57227.625000	44859.980469
449.118500	-24.739643	58501.105469	46100.726563
449.558014	-24.739643	57639.199219	45402.406250
449.997498	-19.774302	58217.410156	46131.222656
450.436951	-37.154564	58120.785156	45591.824219
450.876343	64.571396	58171.148438	46504.703125
451.315674	-12.327209	58458.558594	46533.031250
451.754974	39.776283	58225.828125	46700.992188
452.194183	-37.154564	58654.910156	46602.683594
452.633392	5.045722	58049.601563	46638.863281
453.072510	-61.992577	57094.679688	46427.578125
453.511688	5.045722	56519.218750	45774.796875
453.950684	2.564149	56480.046875	45938.601563
454.389740	-64.476852	55778.398438	45496.984375
454.828735	2.564149	55312.269531	45184.417969
455.267639	14.970702	54877.335938	45179.480469
455.706543	12.489680	53717.281250	44531.156250
456.145325	2.564149	53703.410156	44533.582031
456.584137	-57.024075	52185.375000	43504.082031
457.022858	-14.809513	51682.222656	42571.695313
457.461578	-121.646828	50964.632813	42676.265625
457.900208	-22.256920	50149.832031	42342.328125
458.338867	-52.056133	49020.429688	41237.457031
458.777405	-79.385269	48427.753906	40808.726563
459.215912	-32.188305	47115.730469	40006.488281
459.654388	7.527056	46550.781250	40017.718750
460.092773	-14.809513	45809.722656	39078.000000
460.531189	-2.399309	44434.003906	38221.027344
460.969513	5.045722	43900.617188	37834.656250
461.407806	-27.222471	43317.320313	37094.035156
461.846008	-61.992577	42766.796875	37590.613281
462.284241	-124.133667	41387.457031	36181.437500
462.722351	-64.476852	40670.550781	35191.449219
463.160461	-42.121376	39950.125000	35443.968750
463.598541	-29.705269	40048.902344	35069.609375
464.036530	-14.809513	39692.324219	34444.664063
464.474518	-66.961372	38547.597656	33741.664063
464.912384	-54.539982	38394.144531	33928.007813
465.350281	42.256165	36991.855469	33173.492188
465.788086	-34.671452	36856.714844	32802.636719
466.225891	29.855324	36174.546875	32075.992188
466.663605	-52.056133	36258.699219	31944.824219
467.101318	-71.930580	35348.476563	31382.177734
467.539001	14.970702	34302.535156	30821.509766
467.976563	17.451754	34956.363281	30968.369141
468.414124	89.356232	33670.414063	30173.876953
468.851593	12.489680	33108.855469	30051.458984
469.289063	-24.739643	33037.800781	29361.464844
469.726440	-32.188305	32980.066406	29459.394531
470.163849	-24.739643	32126.871094	28749.476563
470.601135	14.970702	32131.316406	29076.591797
471.038422	-61.992577	31766.695313	28400.185547
471.475677	14.970702	31003.720703	27879.775391
471.912811	42.256165	30908.042969	27397.437500
472.350006	-47.088478	30790.105469	27730.818359
472.787048	-61.992577	30523.054688	27137.503906
473.224121	32.335617	29766.304688	26851.025391
473.661072	-59.508274	29617.175781	26416.013672
474.098053	-49.572250	29318.929688	26207.505859
474.534943	-27.222471	28791.503906	26318.404297
474.971802	2.564149	29034.058594	25866.087891
475.408630	-2.399309	28842.683594	26285.132813
475.845367	-22.256920	28237.558594	25454.037109
476.282104	-19.774302	28144.144531	25418.609375
476.718750	-71.930580	27732.791016	24823.382813
477.155426	-81.870422	27995.148438	25294.630859
477.591949	-84.355675	27668.328125	25106.515625
478.028503	29.855324	26917.388672	24361.484375
478.464966	12.489680	27594.978516	24500.666016
478.901428	-106.727402	27050.632813	23968.494141
479.337860	-44.604942	27066.175781	24231.183594
479.774170	19.932701	27354.970703	24158.320313
480.210510	-57.024075	26165.121094	23494.312500
480.646698	-24.739643	26702.039063	23880.234375
481.082947	-79.385269	26910.726563	23772.140625
481.519073	-29.705269	26236.087891	23357.671875
481.955200	27.374788	26249.396484	23767.726563
482.391266	-7.363050	26260.486328	23767.726563
482.827301	-42.121376	26315.937500	23580.287109
483.263306	-14.809513	26271.574219	23370.894531
483.699188	52.175060	26100.816406	23003.062500
484.135101	5.045722	25681.923828	22699.351563
484.570923	-81.870422	26145.164063	22560.771484
485.006744	-17.291922	25883.568359	22976.644531
485.442413	-29.705269	25876.919922	22606.958984
485.878174	5.045722	25974.447266	22688.349609
486.313782	-22.256920	25914.597656	22859.982422
486.749390	42.256165	25943.414063	22543.177734
487.184998	-52.056133	25941.197266	22450.818359
487.620453	-2.399309	26205.039063	22646.552734
488.055939	-71.930580	26083.080078	22343.093750
488.491333	-76.900360	25553.447266	22037.650391
488.926727	-14.809513	25994.398438	21980.541016
489.362030	-9.845144	25391.791016	22123.330078
489.797302	12.489680	25584.455078	21782.906250
490.232513	-22.256920	26149.597656	22222.210938
490.667755	-34.671452	25932.330078	22059.617188
491.102905	-12.327209	26091.945313	22503.593750
491.537964	-37.154564	26269.357422	22050.832031
491.973022	-22.256920	26098.599609	22180.457031
492.407990	-37.154564	26267.138672	21877.322266
492.842957	-54.539982	26493.421875	22154.091797
493.277832	-14.809513	26608.816406	22367.275391
493.712738	0.082472	26480.109375	22046.439453
494.147491	-24.739643	26690.937500	22367.275391
494.582275	-66.961372	26684.279297	22475.007813
495.017029	-4.881060	27183.902344	22791.759766
495.451660	-44.604942	27543.859375	22919.408203
495.886292	-22.256920	27917.322266	22901.798828
496.320831	7.527056	27421.630859	22868.787109
496.755402	-42.121376	27903.982422	23014.072266
497.189850	-7.363050	28250.900391	23337.841797
497.624298	-9.845144	28500.041016	23388.523438
498.058655	-57.024075	28722.527344	23608.949219
498.493042	17.451754	28775.927734	23335.638672
498.927368	-29.705269	29577.111328	23783.167969
499.361572	34.815945	29766.304688	23915.535156
499.795807	-47.088478	29574.886719	24127.412109
500.229919	2.564149	30186.980469	24140.656250
500.664063	5.045722	30100.175781	24308.474609
501.098083	-2.399309	30500.798828	24317.310547
501.532104	-37.154564	31079.369141	24564.748047
501.966064	-22.256920	30930.292969	24794.640625
502.399994	-37.154564	31319.642578	24838.863281
502.833893	-7.363050	31913.447266	25303.486328
503.267700	0.082472	32106.863281	25434.109375
503.701477	-24.739643	32611.339844	25427.466797
504.135193	-4.881060	32864.578125	25753.070313
504.568909	-66.961372	33117.738281	26311.750000
505.002502	0.082472	33295.343750	25963.611328
505.436127	-4.881060	33852.335938	26948.726563
505.869629	34.815945	33670.414063	26817.722656
506.303162	5.045722	33788.003906	27097.521484
506.736603	-96.783302	34402.296875	27050.880859
507.169983	-29.705269	34856.652344	27504.103516
507.603363	-66.961372	35273.164063	27328.556641
508.036621	-114.186569	35080.433594	27933.136719
508.469940	47.215889	36037.246094	27848.648438
508.903107	67.050247	36178.972656	28400.185547
509.336304	-9.845144	36156.832031	28455.798828
509.769379	-54.539982	36429.226563	28613.753906
510.202484	10.008420	36788.039063	28749.476563
510.635529	12.489680	37197.945313	29354.787109
511.068481	-52.056133	37943.167969	29479.427734
511.501434	-61.992577	37690.183594	29715.361328
511.934265	10.008420	38278.554688	30104.876953
512.367126	-84.355675	38289.667969	29917.910156
512.799927	-69.445992	38587.648438	29762.101563
513.232605	-84.355675	38429.718750	29808.845703
513.665344	39.776283	38249.664063	30487.695313
514.097961	-4.881060	39191.542969	30679.089844
514.530579	0.082472	39441.726563	30567.816406
514.963135	-7.363050	40017.460938	31442.234375
515.395691	57.133957	39945.636719	31010.644531
515.828064	-34.671452	40152.261719	31640.187500
516.260498	-86.841042	40672.808594	31660.201172
516.692871	-27.222471	40869.589844	31913.699219
517.125183	-32.188305	41053.187500	32040.423828
517.557373	-64.476852	41666.003906	32051.539063
517.989624	-12.327209	41455.851563	32082.664063
518.421753	-52.056133	41394.292969	32536.048828
518.853943	-126.620743	41647.703125	32607.144531
519.286072	-29.705269	41805.695313	32942.558594
519.718018	-39.637917	42427.679688	32862.605469
520.150024	17.451754	42088.265625	32895.917969
520.581909	-66.961372	42450.843750	32991.417969
521.013855	-57.024075	42353.628906	33515.332031
521.445679	-17.291922	43068.246094	33513.113281
521.877502	-27.222471	42545.906250	33328.890625
522.309204	-2.399309	42850.746094	33439.875000
522.740906	-7.363050	43030.757813	33539.742188
523.172546	-27.222471	43143.300781	33357.746094
523.604187	-52.056133	43416.378906	33799.343750
524.035767	-141.545197	43454.164063	34127.609375
524.467224	-109.213730	43033.097656	33832.621094
524.898682	29.855324	43061.214844	33896.953125
525.330078	24.894152	43256.109375	34041.121094
525.761475	-12.327209	43418.734375	33515.332031
526.192749	19.932701	43650.710938	33719.476563
526.624023	-22.256920	43619.871094	34225.179688
527.055237	-52.056133	43009.683594	34309.433594
527.486389	-59.508274	43574.835938	34464.617188
527.917542	-32.188305	44125.605469	34262.871094
528.348572	-17.291922	43717.210938	34003.414063
528.779663	-24.739643	43705.328125	34584.312500
529.210571	-57.024075	44120.804688	34229.613281
529.641541	-32.188305	43548.781250	34369.292969
530.072388	-7.363050	43981.855469	34089.910156
530.503235	-42.121376	44024.929688	33945.750000
530.934082	-39.637917	43807.628906	34254.003906
531.364746	-47.088478	43477.800781	34502.304688
531.795532	-22.256920	43907.781250	34238.484375
532.226135	49.695457	43879.140625	34063.296875
532.656738	-37.154564	43783.812500	33954.621094
533.087280	-64.476852	43848.132813	34149.789063
533.517822	-49.572250	43936.441406	34207.441406
533.948242	12.489680	43227.878906	34043.335938
534.378662	-54.539982	43695.824219	34092.128906
534.809082	-14.809513	43496.714844	34061.082031
535.239319	-7.363050	43475.433594	34085.476563
535.669617	37.296165	43581.941406	34495.652344
536.099792	-32.188305	43336.171875	34249.570313
536.529968	-49.572250	44039.296875	34280.613281
536.960083	-9.845144	43425.820313	33967.929688
537.390137	-71.930580	43551.144531	33843.714844
537.820190	-32.188305	43098.722656	34016.726563
538.250183	-9.845144	43183.226563	34089.910156
538.680115	-32.188305	43152.695313	34369.292969
539.109985	-136.569992	43418.734375	34220.746094
539.539795	-7.363050	42892.769531	33748.316406
539.969543	-79.385269	42853.078125	33655.128906
540.399292	-104.241318	42951.191406	33368.847656
540.828979	-4.881060	42815.750000	33721.695313
541.258606	-84.355675	42696.945313	33546.398438
541.688171	-14.809513	42766.796875	33601.875000
542.117737	-52.056133	42771.457031	33701.726563
542.547302	-29.705269	42634.152344	33093.558594
542.976685	-71.930580	43084.656250	33832.621094
543.406128	-54.539982	42381.386719	33555.277344
543.835388	-42.121376	42453.160156	33315.574219
544.264771	22.413546	42436.945313	33428.777344
544.693970	12.489680	42221.953125	33308.914063
545.123230	-32.188305	42279.671875	33586.343750
545.552307	2.564149	42587.691406	33186.816406
545.981506	-37.154564	41867.617188	32998.078125
546.410583	-86.841042	41947.972656	32931.453125
546.839539	19.932701	41695.746094	32913.691406
547.268555	-54.539982	41579.125000	33300.035156
547.697449	22.413546	41778.191406	32975.871094
548.126282	-61.992577	41510.617188	32540.492188
548.555054	24.894152	41355.558594	32869.269531
548.983887	-59.508274	40969.273438	32882.597656
549.412598	-91.811958	41540.296875	32622.697266
549.841309	-2.399309	40930.746094	32542.710938
550.269958	27.374788	40577.960938	31958.166016
550.698486	42.256165	40697.667969	32164.910156
551.127075	-76.900360	40713.484375	32111.560547
551.555481	-52.056133	41032.769531	32478.275391
551.983948	-32.188305	40458.410156	32075.992188
552.412292	-84.355675	40772.277344	31842.546875
552.840698	-24.739643	40440.371094	32196.029297
553.268860	22.413546	40483.207031	32267.154297
553.697205	-69.445992	40616.343750	31842.546875
554.125366	-27.222471	40179.238281	31982.621094
554.553467	-32.188305	40582.476563	31951.496094
554.981628	-14.809513	40359.265625	31771.390625
555.409607	-49.572250	40192.730469	31998.183594
555.837646	-71.930580	40605.054688	31853.666016
556.265564	-12.327209	40384.042969	31811.416016
556.693481	17.451754	40185.984375	31924.814453
557.121338	-71.930580	40370.523438	31844.767578
557.549133	-61.992577	40246.710938	32080.437500
557.976929	2.564149	40260.210938	31927.037109
558.404602	-49.572250	40226.464844	31644.632813
558.832275	2.564149	40003.992188	31646.855469
559.259888	-2.399309	40530.574219	31849.218750
559.687439	-54.539982	40334.488281	31935.931641
560.114929	-76.900360	39954.613281	31933.708984
560.542419	-42.121376	39705.765625	31744.707031
560.969788	-99.269203	39766.250000	32147.128906
561.397156	-57.024075	39522.226563	31675.765625
561.824524	-42.121376	39553.546875	31402.197266
562.251770	-42.121376	39746.082031	31362.156250
562.679016	-12.327209	39225.031250	31322.115234
563.106140	-61.992577	38783.546875	31150.816406
563.533264	24.894152	39144.679688	31039.570313
563.960327	-64.476852	38578.750000	30610.099609
564.387329	-54.539982	38538.703125	30171.650391
564.814331	-12.327209	38262.996094	30354.158203
565.241272	39.776283	37353.109375	30069.265625
565.668213	-47.088478	37506.093750	29855.585938
566.094971	-59.508274	37253.355469	29980.232422
566.521790	-76.900360	37304.335938	29577.361328
566.948425	-17.291922	36639.628906	29323.628906
567.375183	-49.572250	36726.015625	29276.890625
567.801819	-39.637917	36201.121094	28513.638672
568.228394	-34.671452	36088.179688	28696.076172
568.654846	14.970702	35738.281250	28564.808594
569.081421	-19.774302	35955.304688	28111.035156
569.507874	-27.222471	35381.699219	27950.925781
569.934265	-66.961372	35299.746094	27630.791016
570.360596	-27.222471	35293.097656	27657.464844
570.786865	-37.154564	34326.921875	27535.218750
571.213074	-37.154564	34444.417969	27193.037109
571.639282	-71.930580	34138.453125	26915.416016
572.065430	-59.508274	33834.589844	26760.001953
572.491516	59.613117	33830.156250	26804.402344
572.917603	-84.355675	33455.160156	26602.408203
573.343567	5.045722	33388.578125	26411.578125
573.769531	-71.930580	32966.738281	25999.080078
574.195435	-24.739643	32915.660156	25877.167969
574.621277	34.815945	32538.021484	25728.697266
575.047119	-14.809513	32077.964844	25471.753906
575.472839	-52.056133	32362.472656	25511.615234
575.898560	-94.297646	31835.626953	25152.984375
576.324158	-42.121376	31651.054688	25135.281250
576.749817	-64.476852	31281.822266	24960.503906
577.175293	-4.881060	31499.816406	24494.035156
577.600830	-37.154564	31090.494141	24471.941406
578.026306	-49.572250	30770.076172	24228.976563
578.451721	-52.056133	30331.652344	23983.943359
578.877136	-54.539982	30416.226563	24111.958984
579.302429	10.008420	30013.371094	23719.205078
579.727661	52.175060	29744.044922	23997.183594
580.152832	34.815945	29931.015625	23597.923828
580.578064	-32.188305	29459.146484	23362.080078
581.003113	-86.841042	29485.855469	23392.931641
581.428223	-47.088478	29234.353516	22912.806641
581.853271	-44.604942	29461.371094	23071.320313
582.278198	5.045722	28526.738281	22747.753906
582.703125	-4.881060	28715.851563	22686.150391
583.127930	-37.154564	28444.425781	22325.509766
583.552795	-79.385269	28448.875000	22202.431641
583.977539	67.050247	27552.748047	22261.769531
584.402283	-106.727402	27977.359375	22092.572266
584.826965	-57.024075	27679.443359	21960.773438
585.251587	-81.870422	27386.078125	21747.779297
585.676208	-99.269203	27530.525391	21697.291016
586.100647	-4.881060	27190.564453	21295.757813
586.525208	5.045722	27197.230469	21466.863281
586.949524	-14.809513	27106.156250	21113.750000
587.373962	-44.604942	26708.697266	21148.830078
587.798218	-12.327209	26493.421875	21028.248047
588.222534	17.451754	26344.775391	20493.615234
588.646729	-69.445992	26162.904297	20730.195313
589.070984	-29.705269	26045.386719	20572.464844
589.495117	-47.088478	25843.675781	20263.689453
589.919128	-37.154564	25475.933594	19762.490234
590.343201	-57.024075	25526.869141	20086.371094
590.767151	-59.508274	25225.767578	19913.474609
591.191101	2.564149	24354.611328	19762.490234
591.614990	-34.671452	25046.529297	19615.908203
592.038818	22.413546	24686.062500	19469.351563
592.462524	-42.121376	24902.748047	19379.675781
592.886292	-2.399309	24414.251953	19281.261719
593.310059	-2.399309	23873.367188	18940.142578
593.733582	34.815945	24074.185547	18996.990234
594.157227	-2.399309	23516.107422	18911.720703
594.580750	-34.671452	23655.005859	18697.464844
595.004272	-27.222471	23891.017578	18303.976563
595.427673	-96.783302	23357.425781	18301.791016
595.851074	-52.056133	23011.623047	18518.207031
596.274353	-59.508274	23253.875000	18164.074219
596.697632	-44.604942	22778.310547	17735.601563
597.120911	-49.572250	22391.210938	17477.611328
597.544067	0.082472	22668.302734	17571.628906
597.967224	-89.326378	22400.005859	17683.132813
598.390320	-42.121376	22063.765625	17573.816406
598.813354	27.374788	21947.349609	17208.640625
599.236328	-66.961372	21813.396484	17414.201172
599.659241	-61.992577	21859.507813	17020.541016
600.082153	-49.572250	21444.675781	17160.523438
600.505005	-81.870422	21392.025391	16803.957031
600.927795	-39.637917	21117.888672	16536.972656
601.350525	-81.870422	21543.414063	16477.871094
601.773254	-69.445992	20984.160156	16320.240234
602.195862	-2.399309	21082.808594	16302.724609
602.618408	-7.363050	20359.783203	15884.327148
603.040955	-71.930580	20556.884766	15936.919922
603.463440	32.335617	20423.287109	15603.725586
603.885925	-57.024075	19935.111328	15757.202148
604.308350	10.008420	20294.095703	15660.737305
604.730652	-139.057465	19648.478516	15296.595703
605.152893	19.932701	19510.664063	15241.724609
605.575195	-79.385269	19735.990234	15178.062500
605.997375	-59.508274	19388.177734	15204.407227
606.419495	-12.327209	19515.039063	15210.993164
606.841553	-44.604942	19086.392578	14967.238281
607.263672	-37.154564	19108.257813	14690.321289
607.685608	-9.845144	18826.208984	14872.762695
608.107605	-57.024075	18618.521484	14617.753906
608.529480	10.008420	18852.443359	14611.156250
608.951294	27.374788	18533.261719	14426.353516
609.373108	32.335617	18448.007813	14377.933594
609.794800	-52.056133	18133.224609	14325.101563
610.216553	-34.671452	18065.458984	14096.041016
610.638123	12.489680	18305.917969	14237.024414
611.059753	-34.671452	18179.130859	13950.570313
611.481262	-71.930580	18159.457031	14151.122070
611.902832	-32.188305	17901.503906	13994.660156
612.324219	-39.637917	17862.156250	13767.509766
612.745605	-74.415413	17892.761719	13950.570313
613.166931	-32.188305	17827.177734	13462.830078
613.588196	10.008420	17652.279297	13564.434570
614.009460	-54.539982	17394.275391	13688.066406
614.430664	34.815945	17400.835938	13358.968750
614.851807	10.008420	17422.701172	13073.648438
615.272827	-9.845144	17144.968750	13345.707031
615.693909	-81.870422	16843.093750	12849.988281
616.114929	32.335617	16595.824219	13013.882813
616.535889	-47.088478	16512.650391	13000.598633
616.956787	-12.327209	16549.859375	12816.750977
617.377563	-44.604942	16390.058594	12650.477539
617.798340	-91.811958	16144.798828	12563.959961
618.219055	-32.188305	16313.425781	12510.699219
618.639832	-32.188305	15921.335938	12288.618164
619.060364	47.215889	15730.650391	12197.487305
619.481018	-61.992577	15570.584961	12070.719727
619.901611	-7.363050	15528.913086	11747.832031
620.322083	-7.363050	15342.434570	11928.276367
620.742493	-66.961372	14909.870117	11522.568359
621.162842	-84.355675	14850.541016	11348.397461
621.583191	-94.297646	14720.856445	11312.646484
622.003418	-39.637917	14518.524414	11066.654297
622.423706	-17.291922	14280.818359	10945.755859
622.843872	-4.881060	14131.046875	10658.814453
623.264038	-12.327209	13780.500000	10757.509766
623.684143	27.374788	13930.479492	10458.987305
624.104126	-42.121376	13526.642578	10193.643555
624.524170	-69.445992	13329.984375	10378.083984
624.944031	47.215889	13383.033203	10132.863281
625.364014	24.894152	12869.680664	10076.562500
625.783752	-4.881060	13035.772461	9909.788086
626.203552	7.527056	12663.535156	9756.368164
626.623230	74.486450	12572.586914	9575.666016
627.042969	29.855324	12512.669922	9530.455078
627.462585	54.654564	12099.389648	9211.309570
627.882141	17.451754	11963.646484	9213.575195
628.301697	-64.476852	11921.345703	9063.941406
628.721130	-27.222471	11665.093750	9043.523438
629.140625	34.815945	11647.252930	8948.204102
629.559998	-49.572250	11595.952148	8702.794922
629.979309	19.932701	11164.844727	8680.049805
630.398560	-24.739643	11281.108398	8657.300781
630.817810	-54.539982	11207.334961	8595.859375
631.237000	2.564149	11073.116211	8283.670898
631.656067	-14.809513	10970.139648	8226.623047
632.075195	-42.121376	10481.201172	8199.233398
632.494202	-27.222471	10640.610352	8194.666992
632.913208	-22.256920	10577.764648	7899.846680
633.332092	-37.154564	10258.645508	7707.516113
633.750977	-19.774302	10143.868164	7783.107422
634.169739	-144.033020	10089.824219	7581.432617
634.588562	-109.213730	9891.495117	7524.082031
635.007263	-37.154564	9871.196289	7558.495117
635.425964	5.045722	9753.857422	7363.364746
635.844543	0.082472	9785.458984	7528.670410
636.263123	-29.705269	9582.193359	7280.631836
636.681641	10.008420	9602.532227	7131.119141
637.100037	-61.992577	9566.371094	7110.404297
637.518494	-9.845144	9104.510742	6988.345215
637.936829	-12.327209	9061.416992	6676.909668
638.355164	-44.604942	9027.387695	6787.729980
638.773438	32.335617	9152.126953	6933.034668
639.191650	-39.637917	8852.565430	6674.600098
639.609863	-57.024075	9045.538086	6741.566406
640.027893	5.045722	8657.044922	6524.372070
640.445984	-22.256920	8636.566406	6443.405762
640.863953	-42.121376	8449.853516	6429.520508
641.281921	0.082472	8374.639648	6438.777344
641.699829	-44.604942	8360.959961	6244.235840
642.117676	-27.222471	8308.507813	6218.736816
642.535461	-27.222471	8244.625977	6056.352051
642.953247	-47.088478	8251.470703	6119.011230
643.370972	-27.222471	8016.224121	5986.692383
643.788635	-71.930580	7963.637207	5989.014648
644.206177	-2.399309	7759.948242	5875.153809
644.623718	-47.088478	7826.354004	5935.583008
645.041260	-116.673218	7755.368164	5665.744141
645.458618	-59.508274	7475.629883	5877.479004
645.876099	-74.415413	7477.925293	5563.233398
646.293396	-59.508274	7353.917480	5525.935059
646.710693	47.215889	7349.321289	5427.971191
647.127991	-17.291922	7337.832520	5371.956055
647.545166	10.008420	7271.178223	5294.891602
647.962341	-19.774302	7011.125977	5257.509277
648.379333	-37.154564	7112.447266	5266.855957
648.796448	0.082472	6692.817871	5152.306641
649.213379	59.613117	6826.696777	5032.962891
649.630310	-91.811958	6845.151855	5077.437988
650.047180	-44.604942	6822.083008	4995.496094
650.463989	-19.774302	6653.550781	5093.819824
650.880859	17.451754	6623.514160	4847.854004
651.297546	-24.739643	6611.959961	4950.989258
651.714233	-81.870422	6332.020508	4667.144531
652.130859	-34.671452	6348.232422	4709.413574
652.547485	-81.870422	6220.795410	4704.717773
652.963928	-27.222471	6216.159668	4601.360352
653.380432	-49.572250	6037.519531	4519.076660
653.796814	-79.385269	6088.585938	4368.458984
654.213196	-4.881060	5946.940430	4599.010742
654.629578	-39.637917	5819.086426	4417.902832
655.045837	12.489680	5874.893555	4394.360840
655.462036	-17.291922	5821.411621	4403.778320
655.878174	-42.121376	5719.033203	4267.147949
656.294312	-61.992577	5665.482910	4198.769043
656.710327	-24.739643	5546.655762	4116.185547
657.126404	-111.700157	5569.963867	4151.586426
657.542358	-59.508274	5479.034180	4130.347656
657.958252	-14.809513	5565.302734	3967.377441
658.374084	-34.671452	5112.276367	4017.002930
658.789917	-42.121376	5152.043945	3972.104980
659.205688	7.527056	5247.899414	3787.588135
659.621338	32.335617	5201.150391	3853.861816
660.037048	-34.671452	5093.557617	3702.317871
660.452637	-32.188305	5135.670410	3744.961182
660.868164	-19.774302	5002.259766	3804.160400
661.283691	-34.671452	4859.315918	3590.887695
661.699158	-39.637917	4889.793945	3526.820801
662.114502	37.296165	4812.410156	3640.689941
662.529846	-19.774302	4737.321777	3545.807373
662.945129	-54.539982	4699.758789	3389.059570
663.360413	12.489680	4638.692871	3379.551758
663.775635	-7.363050	4601.097168	3370.043457
664.190674	-57.024075	4629.294922	3284.426270
664.605835	24.894152	4481.177734	3298.700928
665.020813	-9.845144	4514.109375	3374.798096
665.435791	-81.870422	4335.220215	3239.209961
665.850769	-22.256920	4252.739746	3248.730957
666.265625	-94.297646	4104.118652	3108.205078
666.680420	-91.811958	3995.472900	3036.673828
667.095215	17.451754	4181.992676	3105.821289
667.509949	-101.755203	4042.723633	2984.184814
667.924622	-69.445992	4092.314697	3015.204346
668.339233	-4.881060	3941.108887	2910.173584
668.753784	-52.056133	3941.108887	2826.544922
669.168335	62.092308	3879.621094	2881.509033
669.582825	-24.739643	3796.792480	2871.952637
669.997192	-7.363050	3709.160156	2659.063965
670.411560	34.815945	3747.064209	2790.680908
670.825867	7.527056	3742.326904	2683.008057
671.240173	-22.256920	3678.353516	2615.948730
671.654358	-4.881060	3649.908203	2532.056152
672.068481	-7.363050	3457.697021	2647.089844
672.482605	-24.739643	3600.110107	2575.210693
672.896667	-17.291922	3436.318115	2606.364746
673.310669	-42.121376	3386.416260	2440.885498
673.724609	2.564149	3269.882813	2541.647949
674.138489	14.970702	3307.949463	2520.065186
674.552307	7.527056	3200.850342	2390.462158
674.966064	-2.399309	3205.613037	2452.886719
675.379822	-42.121376	3172.271240	2279.911133
675.793579	22.413546	3172.271240	2340.010254
676.207153	-66.961372	3019.708496	2301.551514
676.620789	-24.739643	3031.635986	2166.813721
677.034241	-37.154564	2940.949463	2294.338623
677.447754	-69.445992	2969.596924	2169.221680
677.861206	-17.291922	3000.621094	2118.642578
678.274597	19.932701	2821.495361	2125.869629
678.687866	29.855324	2835.837646	2099.366211
679.101135	-34.671452	2890.797119	2195.703613
679.514404	-66.961372	2857.347412	2019.806885
679.927551	-42.121376	2737.787598	2140.322754
680.340698	-71.930580	2706.677490	1952.243042
680.753723	-86.841042	2675.556885	2063.212158
681.166748	-66.961372	2663.584717	1957.070801
681.579712	-59.508274	2632.449463	1807.279419
681.992615	0.082472	2534.185303	1826.622681
682.405457	-71.930580	2531.787109	1887.041016
682.818298	-104.241318	2558.161621	1862.878906
683.231018	47.215889	2344.546631	1816.951904
683.643738	-39.637917	2390.192383	1703.231812
684.056335	-47.088478	2351.755615	1790.350586
684.468994	76.965027	2318.109619	1729.861328
684.881531	22.413546	2296.473389	1708.073975
685.293945	-27.222471	2370.975830	1698.389038
685.706482	-59.508274	2308.493896	1628.137207
686.118774	-47.088478	2260.400879	1540.841675
686.531128	0.082472	2231.532471	1618.442505
686.943481	-14.809513	2245.967773	1632.984131
687.355713	-37.154564	2140.052490	1676.593140
687.767883	24.894152	2079.815430	1574.801270
688.179932	-54.539982	2147.278076	1618.442505
688.592041	-44.604942	2026.771851	1409.715820
689.004089	-19.774302	1973.695068	1446.161987
689.416016	0.082472	1976.108276	1463.164307
689.827881	-19.774302	1990.586670	1472.878052
690.239868	-74.415413	1976.108276	1531.136353
690.651611	24.894152	1838.438721	1446.161987
691.063354	-19.774302	1889.185791	1472.878052
691.475098	-76.900360	1947.144043	1387.840088
691.886719	-29.705269	1761.049927	1365.957764
692.298340	-29.705269	1896.432617	1244.274780
692.709900	-69.445992	1768.308228	1246.710449
693.121460	-22.256920	1724.748413	1351.366211
693.532837	62.092308	1676.321411	1227.223511
693.944214	-34.671452	1732.010132	1241.839111
694.355652	-14.809513	1751.371216	1190.671631
694.766846	-34.671452	1649.674316	1190.671631
695.178101	-86.841042	1712.644531	1190.671631
695.589294	-44.604942	1620.594360	1200.420654
696.000366	22.413546	1506.595093	1149.224609
696.411438	44.736080	1610.898682	1163.855591
696.822510	-17.291922	1564.828003	1063.818115
697.233459	-89.326378	1513.876465	1097.992676
697.644409	5.045722	1465.320435	1154.102051
698.055298	-37.154564	1530.864014	1119.953735
698.466064	14.970702	1394.859863	1039.397827
698.876831	-27.222471	1416.733887	1088.230103
699.287537	-2.399309	1475.033936	1000.308167
699.698181	5.045722	1389.998291	1012.525940
700.108826	10.008420	1363.253174	1007.638977
700.519348	12.489680	1358.389404	1024.741699
700.929810	-49.572250	1304.867920	1083.348511
701.340271	27.374788	1282.961670	941.633301
701.750732	-4.881060	1368.116577	953.861145
702.161011	-42.121376	1360.821289	878.014099
702.571350	-17.291922	1251.308105	983.199707
702.981567	34.815945	1278.092651	912.277771
703.391724	24.894152	1256.178955	858.427246
703.801880	-2.399309	1195.272827	887.805359
704.211914	17.451754	1119.679932	890.252930
704.621948	-91.811958	1300.000366	902.489685
705.031921	-29.705269	1285.395996	890.252930
705.441895	-29.705269	1078.192505	907.383911
705.851746	-17.291922	1148.950928	875.566040
706.261536	12.489680	1190.398193	789.829956
706.671265	-12.327209	1156.266968	780.024902
707.081055	-34.671452	1107.480103	777.573364
707.490662	14.970702	1092.837769	772.669983
707.900330	-9.845144	1102.599731	816.787170
708.309814	-14.809513	1134.316895	784.927490
708.719299	-89.326378	1112.360352	782.476379
709.128784	-69.445992	1083.074585	765.314514
709.538147	-39.637917	1019.581604	735.884033
709.947510	-61.992577	1063.544189	703.986877
710.356750	-42.121376	997.590149	652.429016
710.766052	-52.056133	926.682617	694.169495
711.175171	-69.445992	904.662292	667.163879
711.584290	-47.088478	941.358887	721.164185
711.993347	-37.154564	1002.477783	716.257019
712.402405	-109.213730	987.814087	554.113037
712.811401	-32.188305	921.789734	642.603882
713.220276	-9.845144	956.032104	613.119995
713.629150	-74.415413	853.255127	674.530090
714.037964	-101.755203	948.696045	645.060364
714.446777	-22.256920	865.498352	595.915039
714.855408	34.815945	880.187378	595.915039
715.264099	39.776283	948.696045	642.603882
715.672668	39.776283	725.795898	657.340942
716.081177	-24.739643	755.230530	576.246887
716.489746	-7.363050	774.846558	546.733459
716.898132	-64.476852	681.620056	615.577515
717.306519	-12.327209	701.257507	583.623169
717.714844	-59.508274	762.587280	522.128845
718.123108	-61.992577	789.554932	573.787903
718.531372	24.894152	718.435425	524.589783
718.939514	-14.809513	792.006042	472.891815
719.347595	-17.291922	792.006042	517.206848
719.755676	-74.415413	818.962402	519.667847
720.163696	-81.870422	679.165100	536.892700
720.571716	-66.961372	659.521301	497.515015
720.979614	-74.415413	723.342468	519.667847
721.387451	-32.188305	686.529968	492.591156
721.795227	-32.188305	666.888306	426.081879
722.202942	10.008420	684.075012	490.129028
722.610718	-39.637917	615.301819	504.900116
723.018311	-47.088478	644.784729	445.795471
723.425903	-44.604942	725.795898	443.331573
723.833374	19.932701	718.435425	482.742218
724.240906	2.564149	605.471252	514.745667
724.648376	-7.363050	595.639343	354.569305
725.055725	-2.399309	600.555481	475.354614
725.463013	-76.900360	661.977051	406.362335
725.870300	-54.539982	531.695740	337.295532
726.277466	-7.363050	573.512024	297.794952
726.684631	-64.476852	512.008362	379.237885
727.091797	-12.327209	568.593872	443.331573
727.498779	-4.881060	556.296753	352.101868
727.905823	-121.646828	497.238739	364.437897
728.312805	-37.154564	470.152588	455.650024
728.719666	-59.508274	553.837158	406.362335
729.126526	24.894152	430.734375	376.771423
729.533264	22.413546	467.689758	389.102661
729.940063	-91.811958	553.837158	396.500214
730.346680	-2.399309	430.734375	342.231323
730.753357	-2.399309	497.238739	369.371582
731.159851	14.970702	482.465942	248.383972
731.566406	14.970702	568.593872	342.231323
731.972900	-29.705269	475.078247	408.827545
732.379272	-69.445992	499.700592	398.965942
732.785645	-37.154564	374.028229	374.304993
733.191895	-22.256920	480.003448	312.610565
733.598206	-44.604942	415.946350	228.608704
734.004333	-34.671452	516.930725	342.231323
734.410522	-27.222471	543.997437	337.295532
734.816528	-17.291922	457.837036	337.295532
735.222656	-2.399309	440.591217	352.101868
735.628662	-32.188305	435.663055	426.081879
736.034546	-89.326378	383.893799	243.440796
736.440430	-64.476852	341.954559	250.855499
736.846252	-64.476852	374.028229	354.569305
737.252014	27.374788	381.427521	337.295532
737.657715	-106.727402	465.226685	327.422699
738.063354	-136.569992	403.620270	302.733856
738.468933	-52.056133	359.227051	324.954193
738.874512	-71.930580	391.291962	263.211456
739.280029	-9.845144	450.446564	278.035278
739.685486	-136.569992	411.016144	300.264374
740.090881	-69.445992	521.852722	327.422699
740.496216	-34.671452	393.757874	248.383972
740.901550	-27.222471	364.161102	236.025208
741.306702	-61.992577	396.223541	278.035278
741.711914	-22.256920	393.757874	258.269318
742.117004	-94.297646	287.638763	228.608704
742.522095	-49.572250	396.223541	280.505615
742.927124	-57.024075	381.427521	216.245834
743.332031	44.736080	371.561554	253.326920
743.737000	-49.572250	396.223541	228.608704
744.141785	7.527056	332.082428	228.608704
744.546631	-32.188305	324.677368	231.080872
744.951355	-57.024075	386.359863	218.718643
745.356079	-24.739643	383.893799	206.353775
745.760620	-2.399309	299.987427	302.733856
746.165283	-106.727402	322.208740	223.663818
746.569824	-81.870422	314.802521	198.933731
746.974243	-9.845144	319.740051	208.826981
747.378723	17.451754	262.934204	238.497208
747.783020	-81.870422	282.698700	278.035278
748.187378	22.413546	257.992188	171.719101
748.591614	-24.739643	332.082428	226.136322
748.995850	-34.671452	265.405151	193.986572
749.399963	37.296165	290.108704	236.025208
749.804077	-7.363050	369.094788	166.769730
750.208130	-52.056133	292.578430	179.142578
750.612122	-52.056133	250.578186	102.390732
751.016052	32.335617	334.550507	159.344879
751.419922	-69.445992	228.331299	181.616745
751.823792	-32.188305	304.926147	198.933731
752.227478	-19.774302	272.817230	174.193680
752.631226	-17.291922	260.463165	203.880615
753.034851	-7.363050	223.386505	169.244522
753.438477	10.008420	243.163452	198.933731
753.842102	0.082472	203.603104	159.344879
754.245544	19.932701	176.390533	218.718643
754.648987	-84.355675	213.495590	97.435570
755.052368	-57.024075	188.761429	179.142578
755.455750	-91.811958	215.968384	119.730286
755.859009	-139.057465	176.390533	134.588776
756.262268	-4.881060	215.968384	107.345337
756.665405	-69.445992	257.992188	149.443619
757.068542	14.970702	183.813309	124.683479
757.471680	-9.845144	211.022583	112.299545
757.874634	-39.637917	257.992188	94.957848
758.277588	-47.088478	215.968384	119.730286
758.680420	-59.508274	176.390533	102.390732
759.083374	-19.774302	186.287415	144.492447
759.486084	-22.256920	257.992188	129.636261
759.888916	19.932701	154.116776	104.868011
760.291504	22.413546	82.289848	156.869675
760.694214	-39.637917	129.358536	109.822563
761.096802	-17.291922	186.287415	5.692620
761.499268	27.374788	233.275696	137.064743
761.901733	-76.900360	223.386505	137.064743
762.304199	-22.256920	168.966843	154.394394
762.706543	-57.024075	134.310944	184.090927
763.108826	-59.508274	149.165848	129.636261
763.511108	-59.508274	154.116776	139.540756
763.913208	37.296165	131.834717	114.776558
764.315369	-47.088478	186.287415	55.300919
764.717529	-29.705269	255.520950	107.345337
765.119568	-84.355675	183.813309	70.175323
765.521545	49.695457	203.603104	87.524178
765.923462	-14.809513	139.262939	47.862324
766.325317	-19.774302	116.975555	10.655263
766.727112	-29.705269	171.441559	112.299545
767.128845	-42.121376	116.975555	5.692620
767.530518	0.082472	151.641357	42.902794
767.932251	-54.539982	161.542252	70.175323
768.333862	-22.256920	109.544609	142.016647
768.735413	62.092308	173.916031	70.175323
769.136841	24.894152	186.287415	62.738583
769.538269	0.082472	119.452377	40.422802
769.939636	-24.739643	116.975555	149.443619
770.341003	-39.637917	124.405594	35.462517
770.742249	-39.637917	176.390533	55.300919
771.143433	0.082472	154.116776	18.098516
771.544617	-17.291922	57.502094	57.780289
771.945740	-32.188305	121.929108	72.654076
772.346802	-9.845144	121.929108	32.982353
772.747803	-84.355675	50.063778	-53.892429
773.148682	5.045722	15.339235	80.089584
773.549622	-64.476852	114.498634	85.046173
773.950439	-34.671452	50.063778	20.579437
774.351196	-29.705269	99.635208	5.692620
774.751892	-61.992577	74.854614	90.002213
775.152588	39.776283	27.743246	85.046173
775.553162	19.932701	188.761429	90.002213
775.953735	-42.121376	87.246254	37.942715
776.354309	-61.992577	116.975555	52.821445
776.754639	-4.881060	45.104427	77.611145
777.155090	-39.637917	99.635208	146.968018
777.555420	-34.671452	126.882118	77.611145
777.955750	-7.363050	94.679955	149.443619
778.355896	-69.445992	144.214661	85.046173
778.756104	-49.572250	99.635208	-29.057987
779.156189	5.045722	112.021736	32.982353
779.556274	-57.024075	139.262939	104.868011
779.956299	37.296165	121.929108	28.021444
780.356201	-14.809513	47.584087	-19.127131
780.756165	-19.774302	69.897324	37.942715
781.156006	-49.572250	107.067375	122.206863
781.555786	29.855324	40.144531	85.046173
781.955505	-49.572250	164.017258	42.902794
782.355225	-14.809513	114.498634	75.132729
782.754761	-34.671452	121.929108	8.174062
783.154358	2.564149	116.975555	35.462517
783.553894	-144.033020	139.262939	-21.609720
783.953369	-22.256920	27.743246	45.382542
784.352783	-91.811958	74.854614	-46.441002
784.752075	-74.415413	20.301071	40.422802
785.151367	-49.572250	77.333176	-1.752195
785.550598	-69.445992	35.184357	25.540968
785.949768	-7.363050	55.022717	47.862324
786.348877	-57.024075	37.664425	13.136497
786.747986	-42.121376	59.981377	-4.234053
787.147034	-24.739643	-11.958639	28.021444
787.545959	-39.637917	50.063778	70.175323
787.944885	72.007912	20.301071	0.729425
788.343750	-47.088478	7.895637	28.021444
788.742493	34.815945	12.858095	0.729425
789.141235	-74.415413	116.975555	45.382542
789.539917	72.007912	102.112740	52.821445
789.938538	-12.327209	-24.370859	50.342003
790.337158	-34.671452	134.310944	28.021444
790.735718	-24.739643	112.021736	82.567932
791.134094	62.092308	62.460552	30.501949
791.532532	-66.961372	32.704044	-34.023979
791.930847	17.451754	64.939484	5.692620
792.329224	12.489680	52.543365	3.211074
792.727417	-7.363050	82.289848	-24.092417
793.125610	-44.604942	37.664425	25.540968
793.523682	24.894152	50.063778	37.942715
793.921753	22.413546	45.104427	42.902794
794.319824	-24.739643	156.591934	-19.127131
794.717773	-32.188305	20.301071	-38.990528
795.115723	-24.739643	55.022717	28.021444
795.513550	-64.476852	62.460552	-9.197948
795.911377	10.008420	20.301071	42.902794
796.309082	-39.637917	112.021736	15.617626
796.706787	39.776283	112.021736	8.174062
797.104370	-22.256920	50.063778	-29.057987
797.501953	10.008420	0.451100	-1.752195
797.899536	-54.539982	84.768105	13.136497
798.296936	-84.355675	22.781900	25.540968
798.694397	-2.399309	15.339235	80.089584
799.091736	-14.809513	55.022717	23.060255
799.489014	-114.186569	22.781900	47.862324
799.886230	-22.256920	47.584087	5.692620
800.283447	-17.291922	37.664425	-53.892429
800.680542	-89.326378	59.981377	-14.162397
801.077637	-29.705269	-21.888287	10.655263
801.474670	-42.121376	25.262625	-36.507202
801.871643	22.413546	-101.385933	70.175323
802.268555	-54.539982	57.502094	23.060255
802.665405	-32.188305	5.414184	28.021444
803.062256	-59.508274	64.939484	25.540968
803.458923	-2.399309	2.932626	35.462517
803.855652	-52.056133	82.289848	25.540968
804.252258	0.082472	32.704044	-48.924751
804.648804	-2.399309	45.104427	-24.092417
805.045410	-32.188305	12.858095	10.655263
805.441833	54.654564	35.184357	60.259556
805.838257	-14.809513	59.981377	47.862324
806.234619	-2.399309	82.289848	3.211074
806.630859	-37.154564	87.246254	-29.057987
807.027100	2.564149	50.063778	-14.162397
807.423279	-84.355675	27.743246	10.655263
807.819458	2.564149	27.743246	8.174062
808.215515	27.374788	-21.888287	20.579437
808.611572	-79.385269	-11.958639	25.540968
809.007507	-17.291922	42.624531	-43.957359
809.403381	17.451754	72.375954	-6.716016
809.799194	47.215889	69.897324	65.217644
810.195068	29.855324	72.375954	-4.234053
810.590759	-37.154564	-4.512537	13.136497
810.986450	-79.385269	5.414184	-34.023979
811.382080	-19.774302	-66.592316	-73.767639
811.777649	-9.845144	17.820272	20.579437
812.173157	-89.326378	10.376986	-31.541000
812.568665	-4.881060	-19.405684	55.300919
812.964050	32.335617	2.932626	30.501949
813.359375	-89.326378	-9.476456	57.780289
813.754639	-32.188305	-19.405684	65.217644
814.149841	-19.774302	5.414184	20.579437
814.545105	-4.881060	-9.476456	8.174062
814.940186	-24.739643	35.184357	-21.609720
815.335266	-37.154564	-34.302605	-31.541000
815.730347	-71.930580	74.854614	-4.234053
816.125244	-22.256920	25.262625	-83.707794
816.520203	19.932701	57.502094	-58.860664
816.914978	27.374788	-26.853672	-19.127131
817.309753	0.082472	17.820272	-26.575083
817.704468	-32.188305	59.981377	-24.092417
818.099182	-4.881060	12.858095	25.540968
818.493774	-14.809513	47.584087	37.942715
818.888367	44.736080	-6.994376	18.098516
819.282898	22.413546	-2.030666	28.021444
819.677307	-49.572250	62.460552	-86.192993
820.071716	-4.881060	-21.888287	18.098516
820.466003	-94.297646	-29.336588	-38.990528
820.860291	-96.783302	-26.853672	5.692620
821.254517	-74.415413	-26.853672	0.729425
821.648743	-71.930580	-74.046318	-1.752195
822.042786	-9.845144	-21.888287	32.982353
822.436890	-32.188305	-16.923185	-29.057987
822.830872	91.834053	2.932626	13.136497
823.224792	-96.783302	-2.030666	-51.408470
823.618774	-34.671452	-24.370859	-11.680120
824.012512	-12.327209	27.743246	-38.990528
824.406311	52.175060	27.743246	13.136497
824.799988	0.082472	37.664425	-29.057987
825.193665	-22.256920	0.451100	42.902794
825.587280	-9.845144	62.460552	80.089584
825.980835	17.451754	82.289848	-19.127131
826.374329	-44.604942	22.781900	-43.957359
826.767761	-74.415413	-4.512537	3.211074
827.161194	-96.783302	-46.719688	-106.079262
827.554443	-79.385269	25.262625	25.540968
827.947754	-74.415413	-74.046318	-29.057987
828.340942	-66.961372	-11.958639	23.060255
828.734131	29.855324	-29.336588	-43.957359
829.127136	-52.056133	-31.819477	82.567932
829.520264	-39.637917	25.262625	45.382542
829.913208	-64.476852	-19.405684	-66.313675
830.306152	-39.637917	-21.888287	10.655263
830.699097	-27.222471	-9.476456	35.462517
831.091797	24.894152	7.895637	-6.716016
831.484619	-64.476852	-59.139275	-26.575083
831.877319	-69.445992	-9.476456	10.655263
832.270020	34.815945	-2.030666	10.655263
832.662537	104.222191	37.664425	-26.575083
833.055054	-61.992577	17.820272	-1.752195
833.447510	-52.056133	47.584087	-53.892429
833.839966	0.082472	27.743246	8.174062
834.232361	-34.671452	20.301071	-56.376495
834.624634	5.045722	-9.476456	18.098516
835.016907	-19.774302	-76.531242	-61.344803
835.409058	10.008420	-2.030666	35.462517
835.801208	-22.256920	-51.687176	-46.441002
836.193298	-29.705269	30.223631	-38.990528
836.585327	17.451754	-24.370859	-4.234053
836.977295	-34.671452	-46.719688	52.821445
837.369202	-44.604942	-64.107956	-108.565567
837.761047	-79.385269	-9.476456	-51.408470
838.152832	-74.415413	-36.785839	-19.127131
838.544617	-39.637917	-14.440793	-29.057987
838.936218	-32.188305	37.664425	8.174062
839.327942	-69.445992	30.223631	-51.408470
839.719421	-54.539982	-41.752483	-36.507202
840.111023	-81.870422	-56.655224	-9.197948
840.502380	-34.671452	32.704044	-83.707794
840.893860	-64.476852	-36.785839	15.617626
841.285217	-29.705269	17.820272	0.729425
841.676453	-64.476852	79.811501	8.174062
842.067749	-24.739643	-64.107956	3.211074
842.458862	-71.930580	-14.440793	-14.162397
842.849976	-101.755203	-19.405684	-68.798134
843.241028	-4.881060	-51.687176	-31.541000
843.632019	-54.539982	-24.370859	-101.107124
844.022949	-61.992577	5.414184	32.982353
844.413879	-12.327209	50.063778	28.021444
844.804749	2.564149	22.781900	-58.860664
845.195496	-24.739643	-21.888287	-14.162397
845.586182	-74.415413	-71.561638	3.211074
845.976807	-64.476852	-16.923185	40.422802
846.367432	-2.399309	-6.994376	15.617626
846.757996	19.932701	17.820272	-29.057987
847.148499	-22.256920	35.184357	10.655263
847.538879	54.654564	-61.623558	-11.680120
847.929260	-49.572250	10.376986	10.655263
848.319641	-32.188305	-66.592316	23.060255
848.709839	-17.291922	-24.370859	40.422802
849.100098	-22.256920	10.376986	-24.092417
849.490234	14.970702	12.858095	-53.892429
849.880310	-4.881060	-14.440793	-9.197948
850.270325	-39.637917	-61.623558	50.342003
850.660339	-52.056133	22.781900	10.655263
851.050171	-39.637917	2.932626	-9.197948
851.440125	-91.811958	-91.442757	8.174062
851.829895	27.374788	52.543365	-14.162397
852.219604	-32.188305	-26.853672	-63.829189
852.609314	-12.327209	5.414184	-48.924751
852.998901	-89.326378	7.895637	-48.924751
853.388550	-101.755203	20.301071	-36.507202
853.778015	-27.222471	-88.957329	45.382542
854.167480	-52.056133	-4.512537	-9.197948
854.556885	-27.222471	77.333176	-48.924751
854.946228	-57.024075	40.144531	-6.716016
855.335571	5.045722	-16.923185	-14.162397
855.724731	-66.961372	-51.687176	-24.092417
856.113953	54.654564	0.451100	10.655263
856.503052	-57.024075	50.063778	-58.860664
856.892151	-42.121376	32.704044	-6.716016
857.281067	-34.671452	-11.958639	-58.860664
857.670105	-69.445992	22.781900	-9.197948
858.058960	2.564149	-46.719688	-24.092417
858.447754	-106.727402	-51.687176	-96.135277
858.836609	-47.088478	35.184357	-91.163994
859.225281	-14.809513	-64.107956	-83.707794
859.613892	-54.539982	27.743246	-91.163994
860.002502	2.564149	-34.302605	-53.892429
860.391052	-7.363050	64.939484	-53.892429
860.779541	-37.154564	92.202118	-38.990528
861.167969	-19.774302	-14.440793	-4.234053
861.556335	27.374788	12.858095	23.060255
861.944702	-17.291922	-91.442757	28.021444
862.332947	-4.881060	-51.687176	15.617626
862.721069	17.451754	7.895637	-68.798134
863.109253	24.894152	2.932626	-41.473957
863.497314	-47.088478	-36.785839	55.300919
863.885376	-42.121376	-24.370859	45.382542
864.273315	-74.415413	12.858095	-24.092417
864.661255	-32.188305	50.063778	-31.541000
865.049072	-12.327209	-31.819477	-1.752195
865.436890	-2.399309	-54.171150	23.060255
865.824707	-2.399309	79.811501	-53.892429
866.212280	22.413546	77.333176	-24.092417
866.599915	-7.363050	22.781900	-46.441002
866.987488	-49.572250	-29.336588	-73.767639
867.375061	-52.056133	-16.923185	5.692620
867.762451	-44.604942	-26.853672	37.942715
868.149841	-17.291922	-76.531242	-4.234053
868.537170	-34.671452	-9.476456	-43.957359
868.924438	-19.774302	-11.958639	-83.707794
869.311707	42.256165	-49.203312	5.692620
869.698853	24.894152	-24.370859	-91.163994
870.085938	-34.671452	-19.405684	-76.252419
870.472961	39.776283	-2.030666	-76.252419
870.859985	-9.845144	15.339235	35.462517
871.246887	-39.637917	50.063778	-14.162397
871.633789	-64.476852	57.502094	-9.197948
872.020569	0.082472	-59.139275	-48.924751
872.407349	-44.604942	-19.405684	-29.057987
872.794067	-86.841042	-11.958639	-6.716016
873.180725	-32.188305	-39.269176	-34.023979
873.567322	-66.961372	-9.476456	-68.798134
873.953796	-37.154564	27.743246	-96.135277
874.340332	111.653801	-46.719688	-24.092417
874.726624	54.654564	-24.370859	-91.163994
875.113037	-57.024075	-46.719688	55.300919
875.499329	-64.476852	-19.405684	-26.575083
875.885559	22.413546	-41.752483	-26.575083
876.271729	-109.213730	-29.336588	-38.990528
876.657898	37.296165	-31.819477	10.655263
877.044006	-17.291922	-76.531242	0.729425
877.429932	14.970702	-76.531242	-38.990528
877.815918	-12.327209	69.897324	-1.752195
878.201782	-89.326378	-56.655224	18.098516
878.587585	-54.539982	-101.385933	30.501949
878.973389	-54.539982	45.104427	-68.798134
879.359070	-4.881060	-26.853672	-21.609720
879.744751	7.527056	12.858095	-16.644644
880.130310	-74.415413	-39.269176	-19.127131
880.515930	-32.188305	-44.236034	-48.924751
880.901367	-69.445992	-26.853672	-14.162397
881.286804	2.564149	-66.592316	37.942715
881.672180	-57.024075	25.262625	-29.057987
882.057434	-52.056133	-54.171150	28.021444
882.442749	-4.881060	2.932626	-6.716016
882.827942	-76.900360	-41.752483	0.729425
883.213013	-91.811958	55.022717	-51.408470
883.598145	-86.841042	57.502094	-48.924751
883.983154	-47.088478	-66.592316	-150.848389
884.368042	19.932701	15.339235	-36.507202
884.753052	-111.700157	72.375954	-63.829189
885.137817	-47.088478	0.451100	15.617626
885.522644	-7.363050	2.932626	-48.924751
885.907349	-29.705269	-44.236034	-48.924751
886.292053	22.413546	-44.236034	55.300919
886.676636	-54.539982	-41.752483	-19.127131
887.061157	34.815945	-69.076927	10.655263
887.445740	0.082472	-21.888287	-48.924751
887.830078	-29.705269	-29.336588	-14.162397
888.214539	7.527056	-39.269176	-6.716016
888.598816	29.855324	40.144531	-63.829189
888.983093	-7.363050	-16.923185	0.729425
889.367249	-52.056133	22.781900	-108.565567
889.751465	-86.841042	12.858095	18.098516
890.135498	59.613117	-14.440793	-93.649513
890.519531	-47.088478	-64.107956	-120.998398
890.903503	-2.399309	27.743246	-48.924751
891.287415	-24.739643	-14.440793	30.501949
891.671326	-71.930580	-51.687176	-19.127131
892.055054	29.855324	-36.785839	-19.127131
892.438843	-22.256920	2.932626	0.729425
892.822510	42.256165	2.932626	-36.507202
893.206116	-59.508274	-49.203312	-48.924751
893.589661	-66.961372	10.376986	-111.051834
893.973206	-61.992577	-69.076927	-29.057987
894.356628	-57.024075	-2.030666	40.422802
894.739990	-54.539982	-29.336588	-76.252419
895.123352	-34.671452	-2.030666	-19.127131
895.506592	-22.256920	-4.512537	18.098516
895.889832	29.855324	22.781900	-111.051834
896.272949	-17.291922	109.544609	-24.092417
896.656067	-94.297646	-6.994376	-26.575083
897.039063	-12.327209	0.451100	-96.135277
897.422058	-66.961372	-123.764389	-31.541000
897.804993	10.008420	55.022717	-38.990528
898.187866	-12.327209	0.451100	-36.507202
898.570618	44.736080	47.584087	-9.197948
898.953369	-39.637917	-19.405684	3.211074
899.336121	10.008420	-29.336588	15.617626
899.718689	-71.930580	-19.405684	-9.197948
900.101257	-86.841042	-44.236034	-68.798134
900.483704	-81.870422	-83.986519	-16.644644
900.866211	-69.445992	-24.370859	3.211074
901.248596	7.527056	-34.302605	-43.957359
901.630920	-64.476852	-14.440793	-61.344803
902.013184	-12.327209	-4.512537	-81.222565
902.395386	-52.056133	2.932626	15.617626
902.777588	-9.845144	-41.752483	-103.593079
903.159668	10.008420	-56.655224	-26.575083
903.541687	-111.700157	30.223631	37.942715
903.923645	-94.297646	-29.336588	-29.057987
904.305603	-47.088478	-59.139275	-29.057987
904.687500	-12.327209	-21.888287	67.696602
905.069275	29.855324	-54.171150	-4.234053
905.451050	2.564149	-66.592316	10.655263
905.832642	0.082472	-4.512537	23.060255
906.214294	-14.809513	-41.752483	-48.924751
906.595825	-19.774302	-24.370859	-24.092417
906.977417	-49.572250	-93.928421	3.211074
907.358826	-61.992577	12.858095	10.655263
907.740234	17.451754	10.376986	-66.313675
908.121582	-44.604942	-29.336588	-16.644644
908.502869	-47.088478	-24.370859	-88.678444
908.884033	-52.056133	-39.269176	0.729425
909.265198	39.776283	27.743246	-29.057987
909.646301	5.045722	-64.107956	-103.593079
910.027344	59.613117	-24.370859	-14.162397
910.408325	-121.646828	-2.030666	-53.892429
910.789246	-42.121376	-19.405684	-38.990528
911.170105	-37.154564	42.624531	-36.507202
911.550903	-49.572250	-14.440793	-31.541000
911.931641	7.527056	-101.385933	-43.957359
912.312317	-22.256920	-21.888287	-118.511688
912.692932	17.451754	-83.986519	-71.282837
913.073547	-17.291922	7.895637	-24.092417
913.453979	-14.809513	10.376986	10.655263
913.834473	12.489680	-79.016273	-111.051834
914.214783	24.894152	-46.719688	-24.092417
914.595154	-4.881060	-64.107956	-48.924751
914.975464	-99.269203	-6.994376	-48.924751
915.355652	-24.739643	-6.994376	-24.092417
915.735840	-52.056133	-39.269176	35.462517
916.115845	-17.291922	-19.405684	-31.541000
916.495972	10.008420	-71.561638	50.342003
916.875854	22.413546	-4.512537	-81.222565
917.255859	-27.222471	7.895637	-34.023979
917.635620	-44.604942	-4.512537	-116.024963
918.015503	64.571396	20.301071	10.655263
918.395203	0.082472	-11.958639	62.738583
918.774902	49.695457	-4.512537	-68.798134
919.154480	34.815945	-46.719688	-58.860664
919.534058	67.050247	-83.986519	-19.127131
919.913574	-54.539982	-51.687176	28.021444
920.292969	-17.291922	-31.819477	-11.680120
920.672363	0.082472	57.502094	-16.644644
921.051636	-32.188305	-71.561638	-48.924751
921.430969	22.413546	-98.900085	-101.107124
921.810181	10.008420	42.624531	30.501949
922.189331	-86.841042	15.339235	-26.575083
922.568420	29.855324	12.858095	-41.473957
922.947388	-89.326378	-9.476456	-19.127131
923.326416	-64.476852	12.858095	3.211074
923.705261	-4.881060	42.624531	10.655263
924.084106	19.932701	-9.476456	-26.575083
924.462891	-61.992577	0.451100	-46.441002
924.841675	34.815945	-24.370859	-11.680120
925.220337	-91.811958	2.932626	-130.946671
925.598938	-2.399309	22.781900	-78.737434
925.977478	-27.222471	22.781900	-26.575083
926.355957	-91.811958	2.932626	-26.575083
926.734436	-74.415413	0.451100	-9.197948
927.112732	-74.415413	-36.785839	-24.092417
927.491089	2.564149	-26.853672	35.462517
927.869324	-52.056133	37.664425	-46.441002
928.247559	54.654564	-16.923185	-73.767639
928.625671	-27.222471	20.301071	-103.593079
929.003723	-17.291922	2.932626	-29.057987
929.381775	-47.088478	-26.853672	-58.860664
929.759705	5.045722	-6.994376	-46.441002
930.137634	5.045722	-36.785839	-14.162397
930.515381	-42.121376	-86.471870	-9.197948
930.893250	-76.900360	22.781900	-14.162397
931.270935	-34.671452	-103.872032	-9.197948
931.648560	-7.363050	-46.719688	0.729425
932.026123	37.296165	5.414184	-46.441002
932.403687	2.564149	20.301071	-29.057987
932.781250	-7.363050	22.781900	25.540968
933.158630	-37.154564	-16.923185	-24.092417
933.536011	-66.961372	-126.251312	18.098516
933.913208	2.564149	37.664425	-21.609720
934.290527	-32.188305	-106.358238	-38.990528
934.667664	-64.476852	-21.888287	-29.057987
935.044800	-32.188305	-6.994376	-34.023979
935.421814	10.008420	5.414184	23.060255
935.798889	-52.056133	-34.302605	-9.197948
936.175842	-52.056133	-54.171150	-48.924751
936.552673	-27.222471	32.704044	0.729425
936.929504	-39.637917	-46.719688	-86.192993
937.306274	-12.327209	-54.171150	-48.924751
937.683044	-104.241318	27.743246	-53.892429
938.059570	-27.222471	7.895637	-78.737434
938.436218	34.815945	30.223631	-24.092417
938.812744	10.008420	-24.370859	-46.441002
939.189148	-101.755203	-9.476456	-93.649513
939.565613	-2.399309	-56.655224	-63.829189
939.941956	-27.222471	-19.405684	-98.621147
940.318237	-27.222471	-56.655224	-130.946671
940.694458	17.451754	-31.819477	-48.924751
941.070557	-29.705269	7.895637	-21.609720
941.446655	-89.326378	25.262625	-51.408470
941.822693	-54.539982	-14.440793	-9.197948
942.198669	-42.121376	-46.719688	-108.565567
942.574646	39.776283	35.184357	13.136497
942.950562	-29.705269	20.301071	-38.990528
943.326294	17.451754	55.022717	-19.127131
943.702026	-27.222471	-51.687176	25.540968
944.077698	0.082472	-41.752483	-1.752195
944.453369	27.374788	-34.302605	-135.921387
944.828918	-32.188305	-39.269176	10.655263
945.204468	-4.881060	-41.752483	-19.127131
945.579834	-54.539982	-31.819477	25.540968
945.955261	-84.355675	7.895637	0.729425
946.330627	7.527056	15.339235	-103.593079
946.705811	-34.671452	50.063778	-93.649513
947.081055	-4.881060	-64.107956	-43.957359
947.456177	-61.992577	-46.719688	28.021444
947.831238	-49.572250	2.932626	-46.441002
948.206238	-59.508274	52.543365	-38.990528
948.581238	47.215889	-6.994376	67.696602
948.956116	57.133957	15.339235	35.462517
949.330933	10.008420	12.858095	-78.737434
949.705811	-59.508274	0.451100	-43.957359
950.080505	10.008420	-11.958639	-36.507202
950.455139	14.970702	-9.476456	13.136497
950.829773	-66.961372	-46.719688	-48.924751
951.204346	5.045722	22.781900	32.982353
951.578735	-27.222471	77.333176	-4.234053
951.953186	-188.831833	-36.785839	-11.680120
952.327515	-42.121376	-69.076927	-71.282837
952.701843	-42.121376	7.895637	-63.829189
953.076172	-49.572250	-46.719688	-138.408966
953.450195	-49.572250	-36.785839	-41.473957
953.824341	-91.811958	-9.476456	-93.649513
954.198486	-19.774302	-9.476456	10.655263
954.572449	-96.783302	-34.302605	-63.829189
954.946350	-44.604942	-6.994376	-63.829189
955.320251	-17.291922	0.451100	-34.023979
955.694092	5.045722	22.781900	-16.644644
956.067871	-71.930580	-31.819477	-73.767639
956.441589	-12.327209	15.339235	-88.678444
956.815125	32.335617	-26.853672	-48.924751
957.188721	42.256165	45.104427	-38.990528
957.562256	-42.121376	-19.405684	-53.892429
957.935730	-29.705269	-11.958639	-9.197948
958.309021	-57.024075	30.223631	-24.092417
958.682373	39.776283	-46.719688	-43.957359
959.055664	34.815945	-21.888287	-6.716016
959.428955	-32.188305	-24.370859	-6.716016
959.802063	-111.700157	-29.336588	15.617626
960.175110	-27.222471	-19.405684	-16.644644
960.548157	-32.188305	-51.687176	-11.680120
960.921143	84.400002	-11.958639	-26.575083
961.294128	-14.809513	0.451100	-66.313675
961.666809	-84.355675	-66.592316	15.617626
962.039612	-27.222471	10.376986	23.060255
962.412415	-49.572250	-29.336588	-31.541000
962.785095	-84.355675	-4.512537	10.655263
963.157715	-37.154564	-14.440793	3.211074
963.530151	44.736080	-46.719688	10.655263
963.902649	-42.121376	-26.853672	-91.163994
964.275146	-49.572250	-21.888287	23.060255
964.647522	-116.673218	-11.958639	-31.541000
965.019714	-69.445992	2.932626	-46.441002
965.392029	-94.297646	-74.046318	-29.057987
965.764160	-14.809513	5.414184	-36.507202
966.136292	-14.809513	47.584087	-16.644644
966.508423	-22.256920	32.704044	-38.990528
966.880371	-37.154564	59.981377	42.902794
967.252319	-131.595078	12.858095	-14.162397
967.624207	-47.088478	35.184357	-14.162397
967.996094	52.175060	7.895637	20.579437
968.367737	0.082472	-21.888287	15.617626
968.739441	-32.188305	-19.405684	-73.767639
969.111084	-64.476852	-71.561638	-26.575083
969.482666	-57.024075	5.414184	-16.644644
969.854248	-34.671452	-21.888287	-51.408470
970.225586	-71.930580	30.223631	-31.541000
970.596985	-32.188305	20.301071	18.098516
970.968323	-7.363050	-88.957329	-48.924751
971.339661	39.776283	2.932626	-46.441002
971.710754	-76.900360	2.932626	-26.575083
972.081909	-37.154564	7.895637	-61.344803
972.453064	-9.845144	7.895637	-41.473957
972.824097	-61.992577	-6.994376	25.540968
973.194946	-42.121376	-106.358238	-120.998398
973.565918	14.970702	-44.236034	-21.609720
973.936768	-57.024075	67.418457	-43.957359
974.307556	-2.399309	-11.958639	8.174062
974.678284	-37.154564	-29.336588	-11.680120
975.048828	-4.881060	-39.269176	-36.507202
975.419495	-17.291922	92.202118	-1.752195
975.790039	-71.930580	-74.046318	-16.644644
976.160522	-96.783302	-51.687176	-98.621147
976.530884	2.564149	-39.269176	5.692620
976.901245	-47.088478	-24.370859	-68.798134
977.271606	7.527056	27.743246	-148.360260
977.641846	-14.809513	-29.336588	8.174062
978.012024	-27.222471	-41.752483	-29.057987
978.382019	-57.024075	-44.236034	-36.507202
978.752136	-52.056133	-49.203312	-36.507202
979.122131	-7.363050	-24.370859	-26.575083
979.492065	-9.845144	17.820272	-6.716016
979.861877	-52.056133	57.502094	-73.767639
980.231689	-29.705269	-79.016273	8.174062
980.601440	-42.121376	22.781900	-29.057987
980.971191	-44.604942	-56.655224	-58.860664
981.340820	-2.399309	57.502094	-11.680120
981.710266	-54.539982	-31.819477	-130.946671
982.079773	-52.056133	-101.385933	-6.716016
982.449280	-86.841042	-16.923185	-53.892429
982.818604	-91.811958	-31.819477	-58.860664
983.187866	-49.572250	-39.269176	5.692620
983.557129	-22.256920	-54.171150	-66.313675
983.926331	-74.415413	-29.336588	-108.565567
984.295471	-12.327209	10.376986	3.211074
984.664612	-22.256920	-41.752483	0.729425
985.033569	-34.671452	-66.592316	-36.507202
985.402527	-57.024075	-39.269176	-38.990528
985.771362	-42.121376	-16.923185	-38.990528
986.140259	2.564149	-29.336588	20.579437
986.508911	7.527056	-54.171150	-11.680120
986.877625	24.894152	10.376986	-41.473957
987.246277	-64.476852	-41.752483	52.821445
987.614929	-42.121376	-11.958639	-34.023979
987.983459	-24.739643	17.820272	28.021444
988.351807	-37.154564	-6.994376	-6.716016
988.720215	-74.415413	-16.923185	-29.057987
989.088623	-49.572250	-2.030666	3.211074
989.456909	-7.363050	-16.923185	23.060255
989.825012	-34.671452	-21.888287	-76.252419
990.193115	-74.415413	-16.923185	-71.282837
990.561279	-27.222471	-2.030666	-41.473957
990.929321	5.045722	-16.923185	-53.892429
991.297302	-52.056133	-24.370859	-63.829189
991.665100	59.613117	-39.269176	-36.507202
992.033020	2.564149	-24.370859	-9.197948
992.400818	32.335617	-4.512537	-34.023979
992.768494	-59.508274	-29.336588	-31.541000
993.136047	-76.900360	-36.785839	13.136497
993.503723	-42.121376	55.022717	-9.197948
993.871277	10.008420	-49.203312	-14.162397
994.238770	-9.845144	-41.752483	-46.441002
994.606140	-96.783302	-4.512537	-96.135277
994.973450	-124.133667	-71.561638	15.617626
995.340759	-69.445992	-61.623558	-31.541000
995.708008	-34.671452	-16.923185	-66.313675
996.075195	-32.188305	-103.872032	-108.565567
996.442200	-66.961372	17.820272	-26.575083
996.809265	-4.881060	-21.888287	-51.408470
997.176270	-114.186569	-71.561638	57.780289
997.543152	-57.024075	-56.655224	20.579437
997.910095	7.527056	-2.030666	-88.678444
998.276733	-14.809513	-44.236034	-48.924751
998.643494	-4.881060	-26.853672	45.382542
999.010193	-116.673218	-49.203312	18.098516
999.376831	-12.327209	-16.923185	50.342003
999.743286	29.855324	-59.139275	-14.162397
1000.109802	2.564149	32.704044	-29.057987
1000.476257	-47.088478	-4.512537	-6.716016
1000.842651	-32.188305	22.781900	5.692620
1001.208923	10.008420	-46.719688	-29.057987
1001.575134	-27.222471	20.301071	20.579437
1001.941284	-61.992577	-26.853672	-83.707794
1002.307434	42.256165	-34.302605	-53.892429
1002.673523	44.736080	-86.471870	-58.860664
1003.039429	-44.604942	-101.385933	-53.892429
1003.405334	7.527056	-66.592316	5.692620
1003.771179	5.045722	0.451100	15.617626
1004.137024	-69.445992	-21.888287	-51.408470
1004.502808	22.413546	-93.928421	-73.767639
1004.868408	42.256165	17.820272	-51.408470
1005.234009	-39.637917	7.895637	-4.234053
1005.599609	-49.572250	-46.719688	-51.408470
1005.965149	-2.399309	-9.476456	-91.163994
1006.330444	-76.900360	-4.512537	-26.575083
1006.695862	-32.188305	0.451100	-91.163994
1007.061218	-2.399309	-26.853672	30.501949
1007.426453	-101.755203	10.376986	-58.860664
1007.791626	10.008420	-14.440793	-31.541000
1008.156677	-22.256920	-64.107956	-26.575083
1008.521729	-101.755203	-51.687176	-46.441002
1008.886780	-32.188305	-24.370859	-21.609720
1009.251709	-89.326378	-51.687176	28.021444
1009.616577	2.564149	50.063778	-68.798134
1009.981384	0.082472	-19.405684	-108.565567
1010.346130	44.736080	-98.900085	-86.192993
1010.710754	-69.445992	-29.336588	-113.538345
1011.075439	-59.508274	-39.269176	-73.767639
1011.439941	-42.121376	-21.888287	-83.707794
1011.804443	-7.363050	-151.127441	-81.222565
1012.168884	-57.024075	12.858095	-91.163994
1012.533325	-34.671452	5.414184	-21.609720
1012.897522	-61.992577	-46.719688	-78.737434
1013.261780	-17.291922	-66.592316	-43.957359
1013.626038	-76.900360	-26.853672	8.174062
1013.990112	-2.399309	-26.853672	0.729425
1014.354187	-37.154564	32.704044	-9.197948
1014.718140	-32.188305	0.451100	-34.023979
1015.082153	-54.539982	-29.336588	-26.575083
1015.446045	-57.024075	50.063778	-1.752195
1015.809937	10.008420	17.820272	-43.957359
1016.173523	37.296165	2.932626	-9.197948
1016.537170	-52.056133	-44.236034	-41.473957
1016.900879	-66.961372	-19.405684	23.060255
1017.264404	-42.121376	-29.336588	0.729425
1017.627991	-64.476852	17.820272	-14.162397
1017.991333	47.215889	15.339235	-61.344803
1018.354675	-91.811958	-34.302605	-1.752195
1018.718018	-34.671452	-19.405684	-58.860664
1019.081299	-59.508274	-51.687176	20.579437
1019.444397	17.451754	67.418457	-36.507202
1019.807495	-69.445992	-31.819477	-118.511688
1020.170593	-37.154564	-26.853672	-29.057987
1020.533691	-29.705269	-29.336588	-76.252419
1020.896606	-59.508274	-34.302605	-21.609720
1021.259460	-17.291922	15.339235	25.540968
1021.622253	-54.539982	-11.958639	-48.924751
1021.985046	-57.024075	-76.531242	-38.990528
1022.347778	-19.774302	-81.501411	-81.222565
1022.710327	-22.256920	-54.171150	-138.408966
1023.072876	-71.930580	0.451100	-4.234053
1023.435364	-64.476852	-34.302605	0.729425
1023.797852	-99.269203	-39.269176	-21.609720
1024.160278	-69.445992	-66.592316	-51.408470
1024.522461	-14.809513	-39.269176	-34.023979
1024.884766	27.374788	40.144531	-9.197948
1025.246948	19.932701	15.339235	57.780289
1025.609131	5.045722	5.414184	10.655263
1025.971069	-14.809513	-6.994376	-1.752195
1026.333130	-66.961372	-36.785839	-11.680120
1026.694946	0.082472	5.414184	-4.234053
1027.056885	-86.841042	-41.752483	-73.767639
1027.418823	-39.637917	-6.994376	-43.957359
1027.780396	17.451754	37.664425	10.655263
1028.142090	-49.572250	-29.336588	-9.197948
1028.503784	-74.415413	-49.203312	-31.541000
1028.865479	29.855324	-81.501411	-1.752195
1029.226807	-7.363050	-41.752483	-41.473957
1029.588135	54.654564	20.301071	-24.092417
1029.949707	29.855324	-16.923185	-41.473957
1030.310913	44.736080	-64.107956	3.211074
1030.672241	-52.056133	-34.302605	-24.092417
1031.033325	-42.121376	27.743246	-51.408470
1031.394531	-69.445992	27.743246	-81.222565
1031.755493	2.564149	32.704044	-51.408470
1032.116577	-22.256920	42.624531	-56.376495
1032.477417	-44.604942	-39.269176	-4.234053
1032.838257	10.008420	22.781900	-41.473957
1033.199097	-64.476852	-36.785839	-96.135277
1033.559937	-57.024075	-16.923185	-34.023979
1033.920654	-42.121376	-49.203312	-29.057987
1034.281128	-39.637917	-74.046318	-16.644644
1034.641724	-84.355675	-44.236034	-26.575083
1035.002197	7.527056	-61.623558	-38.990528
1035.362671	7.527056	-36.785839	-36.507202
1035.722900	34.815945	-88.957329	-145.872253
1036.083252	-57.024075	-24.370859	-1.752195
1036.443481	-34.671452	15.339235	-41.473957
1036.803711	49.695457	0.451100	-26.575083
1037.163940	-57.024075	-61.623558	-4.234053
1037.523804	-42.121376	-16.923185	-43.957359
1037.883789	-27.222471	55.022717	-106.079262
1038.243774	-47.088478	-44.236034	15.617626
1038.603638	-17.291922	-51.687176	5.692620
1038.963257	-57.024075	-41.752483	-36.507202
1039.323120	-39.637917	-56.655224	8.174062
1039.682861	-34.671452	-54.171150	-26.575083
>>>>>End Processed Spectral Data<<<<<
